Name: Arctostaphylos glandulosa 1
Type: vegetation
Class: Shrub
Genus: Arctostaphylos
Species: glandulosa
Sample No.: VH118
Owner: UCSB
Wavelength Range: VSWIR
Origin: 34.5084; -119.7682; WGS84
Collection Date: 6/3/2013
Description: Samples were collected as part of the HyspIRI Airborne Campaign. 48 individual plants were sampled in three times in 2013 - spring  summer  and fall. The name of the sample includes a 1  2  or 3 which references a different individual of the species. Samples were taken to JPL and processed within 48 hours of collection. The same leaves were processed in the Nicolet and then measured using the ASD.
Measurement: Bidirectional reflectance
First Column: X
Second Column: Y
X Units: Wavelength (micrometers)
Y Units: Reflectance (percentage)
First X Value: 0.35
Last X Value: 2.5
Number of X Values: 2151
Additional Information: vegetation.shrub.arctostaphylos.glandulosa.vswir.vh118.ucsb.asd.ancillary.txt

 0.3500	 8.0750
 0.3510	 8.1640
 0.3520	 8.1460
 0.3530	 8.0800
 0.3540	 8.0970
 0.3550	 8.2870
 0.3560	 8.2430
 0.3570	 8.1200
 0.3580	 8.2710
 0.3590	 8.0690
 0.3600	 7.9220
 0.3610	 8.0280
 0.3620	 8.1520
 0.3630	 8.2220
 0.3640	 8.2060
 0.3650	 8.1300
 0.3660	 8.1450
 0.3670	 8.1550
 0.3680	 8.1420
 0.3690	 8.1530
 0.3700	 8.2580
 0.3710	 8.3330
 0.3720	 8.3070
 0.3730	 8.2430
 0.3740	 8.2860
 0.3750	 8.3610
 0.3760	 8.3450
 0.3770	 8.2500
 0.3780	 8.2910
 0.3790	 8.4180
 0.3800	 8.3790
 0.3810	 8.4750
 0.3820	 8.5630
 0.3830	 8.5470
 0.3840	 8.6110
 0.3850	 8.5900
 0.3860	 8.5670
 0.3870	 8.6710
 0.3880	 8.7090
 0.3890	 8.7470
 0.3900	 8.7900
 0.3910	 8.7720
 0.3920	 8.7300
 0.3930	 8.7220
 0.3940	 8.7710
 0.3950	 8.8220
 0.3960	 8.8240
 0.3970	 8.8310
 0.3980	 8.9200
 0.3990	 8.9620
 0.4000	 8.9950
 0.4010	 9.0240
 0.4020	 8.9920
 0.4030	 9.0110
 0.4040	 9.0410
 0.4050	 9.0340
 0.4060	 9.0570
 0.4070	 9.1000
 0.4080	 9.1420
 0.4090	 9.1600
 0.4100	 9.1970
 0.4110	 9.2320
 0.4120	 9.2580
 0.4130	 9.3070
 0.4140	 9.3280
 0.4150	 9.3340
 0.4160	 9.3570
 0.4170	 9.4200
 0.4180	 9.4810
 0.4190	 9.5240
 0.4200	 9.5610
 0.4210	 9.6000
 0.4220	 9.6510
 0.4230	 9.7160
 0.4240	 9.7640
 0.4250	 9.7910
 0.4260	 9.8190
 0.4270	 9.8740
 0.4280	 9.9010
 0.4290	 9.9460
 0.4300	10.0160
 0.4310	10.0610
 0.4320	10.1050
 0.4330	10.1400
 0.4340	10.1600
 0.4350	10.1970
 0.4360	10.2330
 0.4370	10.2660
 0.4380	10.3080
 0.4390	10.3520
 0.4400	10.3910
 0.4410	10.4240
 0.4420	10.4600
 0.4430	10.4950
 0.4440	10.5330
 0.4450	10.5780
 0.4460	10.5960
 0.4470	10.6220
 0.4480	10.6620
 0.4490	10.6860
 0.4500	10.7120
 0.4510	10.7460
 0.4520	10.7850
 0.4530	10.8040
 0.4540	10.8280
 0.4550	10.8530
 0.4560	10.8600
 0.4570	10.8880
 0.4580	10.9130
 0.4590	10.9210
 0.4600	10.9420
 0.4610	10.9590
 0.4620	10.9680
 0.4630	10.9690
 0.4640	10.9860
 0.4650	11.0060
 0.4660	11.0150
 0.4670	11.0020
 0.4680	11.0090
 0.4690	11.0280
 0.4700	11.0420
 0.4710	11.0400
 0.4720	11.0430
 0.4730	11.0550
 0.4740	11.0710
 0.4750	11.0820
 0.4760	11.0860
 0.4770	11.0900
 0.4780	11.1040
 0.4790	11.1150
 0.4800	11.1270
 0.4810	11.1420
 0.4820	11.1390
 0.4830	11.1470
 0.4840	11.1700
 0.4850	11.1900
 0.4860	11.2040
 0.4870	11.2210
 0.4880	11.2430
 0.4890	11.2550
 0.4900	11.2860
 0.4910	11.3220
 0.4920	11.3370
 0.4930	11.3700
 0.4940	11.4080
 0.4950	11.4470
 0.4960	11.4990
 0.4970	11.5400
 0.4980	11.5820
 0.4990	11.6390
 0.5000	11.7040
 0.5010	11.7700
 0.5020	11.8360
 0.5030	11.9130
 0.5040	12.0030
 0.5050	12.1050
 0.5060	12.2170
 0.5070	12.3350
 0.5080	12.4590
 0.5090	12.5900
 0.5100	12.7310
 0.5110	12.8860
 0.5120	13.0510
 0.5130	13.2260
 0.5140	13.4170
 0.5150	13.6220
 0.5160	13.8370
 0.5170	14.0610
 0.5180	14.2980
 0.5190	14.5390
 0.5200	14.7780
 0.5210	15.0180
 0.5220	15.2640
 0.5230	15.5100
 0.5240	15.7490
 0.5250	15.9830
 0.5260	16.2110
 0.5270	16.4300
 0.5280	16.6370
 0.5290	16.8340
 0.5300	17.0190
 0.5310	17.1930
 0.5320	17.3530
 0.5330	17.5070
 0.5340	17.6540
 0.5350	17.7900
 0.5360	17.9110
 0.5370	18.0270
 0.5380	18.1390
 0.5390	18.2400
 0.5400	18.3420
 0.5410	18.4410
 0.5420	18.5340
 0.5430	18.6260
 0.5440	18.7140
 0.5450	18.8000
 0.5460	18.8830
 0.5470	18.9530
 0.5480	19.0220
 0.5490	19.0910
 0.5500	19.1470
 0.5510	19.2030
 0.5520	19.2520
 0.5530	19.2880
 0.5540	19.3120
 0.5550	19.3280
 0.5560	19.3330
 0.5570	19.3190
 0.5580	19.2950
 0.5590	19.2620
 0.5600	19.2190
 0.5610	19.1590
 0.5620	19.0920
 0.5630	19.0160
 0.5640	18.9300
 0.5650	18.8370
 0.5660	18.7400
 0.5670	18.6400
 0.5680	18.5320
 0.5690	18.4120
 0.5700	18.2880
 0.5710	18.1650
 0.5720	18.0420
 0.5730	17.9220
 0.5740	17.8010
 0.5750	17.6750
 0.5760	17.5630
 0.5770	17.4660
 0.5780	17.3770
 0.5790	17.2940
 0.5800	17.2120
 0.5810	17.1340
 0.5820	17.0640
 0.5830	16.9990
 0.5840	16.9430
 0.5850	16.8920
 0.5860	16.8390
 0.5870	16.7910
 0.5880	16.7450
 0.5890	16.6980
 0.5900	16.6500
 0.5910	16.6090
 0.5920	16.5740
 0.5930	16.5410
 0.5940	16.5150
 0.5950	16.4910
 0.5960	16.4690
 0.5970	16.4520
 0.5980	16.4390
 0.5990	16.4260
 0.6000	16.4080
 0.6010	16.3870
 0.6020	16.3530
 0.6030	16.3070
 0.6040	16.2590
 0.6050	16.1990
 0.6060	16.1320
 0.6070	16.0630
 0.6080	15.9840
 0.6090	15.9050
 0.6100	15.8240
 0.6110	15.7380
 0.6120	15.6480
 0.6130	15.5520
 0.6140	15.4550
 0.6150	15.3680
 0.6160	15.2810
 0.6170	15.1980
 0.6180	15.1230
 0.6190	15.0600
 0.6200	15.0000
 0.6210	14.9430
 0.6220	14.8960
 0.6230	14.8560
 0.6240	14.8200
 0.6250	14.7870
 0.6260	14.7680
 0.6270	14.7510
 0.6280	14.7330
 0.6290	14.7180
 0.6300	14.7080
 0.6310	14.6910
 0.6320	14.6660
 0.6330	14.6400
 0.6340	14.6040
 0.6350	14.5540
 0.6360	14.4910
 0.6370	14.4240
 0.6380	14.3430
 0.6390	14.2480
 0.6400	14.1490
 0.6410	14.0400
 0.6420	13.9240
 0.6430	13.8060
 0.6440	13.6860
 0.6450	13.5680
 0.6460	13.4540
 0.6470	13.3470
 0.6480	13.2520
 0.6490	13.1640
 0.6500	13.0850
 0.6510	13.0220
 0.6520	12.9630
 0.6530	12.9080
 0.6540	12.8560
 0.6550	12.7960
 0.6560	12.7300
 0.6570	12.6590
 0.6580	12.5830
 0.6590	12.4980
 0.6600	12.4080
 0.6610	12.3160
 0.6620	12.2210
 0.6630	12.1340
 0.6640	12.0520
 0.6650	11.9720
 0.6660	11.9050
 0.6670	11.8450
 0.6680	11.7920
 0.6690	11.7510
 0.6700	11.7110
 0.6710	11.6840
 0.6720	11.6690
 0.6730	11.6530
 0.6740	11.6460
 0.6750	11.6450
 0.6760	11.6470
 0.6770	11.6600
 0.6780	11.6760
 0.6790	11.6970
 0.6800	11.7290
 0.6810	11.7770
 0.6820	11.8440
 0.6830	11.9300
 0.6840	12.0370
 0.6850	12.1750
 0.6860	12.3520
 0.6870	12.5730
 0.6880	12.8530
 0.6890	13.1900
 0.6900	13.5900
 0.6910	14.0660
 0.6920	14.6180
 0.6930	15.2460
 0.6940	15.9490
 0.6950	16.7170
 0.6960	17.5500
 0.6970	18.4440
 0.6980	19.3880
 0.6990	20.3700
 0.7000	21.3850
 0.7010	22.4240
 0.7020	23.4770
 0.7030	24.5320
 0.7040	25.5790
 0.7050	26.6140
 0.7060	27.6330
 0.7070	28.6310
 0.7080	29.6060
 0.7090	30.5590
 0.7100	31.4880
 0.7110	32.3950
 0.7120	33.2790
 0.7130	34.1370
 0.7140	34.9670
 0.7150	35.7760
 0.7160	36.5620
 0.7170	37.3150
 0.7180	38.0460
 0.7190	38.7540
 0.7200	39.4310
 0.7210	40.0810
 0.7220	40.7080
 0.7230	41.3080
 0.7240	41.8710
 0.7250	42.4100
 0.7260	42.9230
 0.7270	43.4060
 0.7280	43.8610
 0.7290	44.2870
 0.7300	44.6870
 0.7310	45.0650
 0.7320	45.4190
 0.7330	45.7490
 0.7340	46.0550
 0.7350	46.3410
 0.7360	46.6090
 0.7370	46.8600
 0.7380	47.0930
 0.7390	47.3130
 0.7400	47.5220
 0.7410	47.7160
 0.7420	47.8920
 0.7430	48.0550
 0.7440	48.2110
 0.7450	48.3560
 0.7460	48.4880
 0.7470	48.6070
 0.7480	48.7180
 0.7490	48.8220
 0.7500	48.9220
 0.7510	49.0120
 0.7520	49.0920
 0.7530	49.1650
 0.7540	49.2330
 0.7550	49.2970
 0.7560	49.3560
 0.7570	49.4120
 0.7580	49.4640
 0.7590	49.5130
 0.7600	49.5610
 0.7610	49.6010
 0.7620	49.6360
 0.7630	49.6690
 0.7640	49.7020
 0.7650	49.7370
 0.7660	49.7720
 0.7670	49.8020
 0.7680	49.8270
 0.7690	49.8490
 0.7700	49.8720
 0.7710	49.8980
 0.7720	49.9210
 0.7730	49.9440
 0.7740	49.9660
 0.7750	49.9850
 0.7760	50.0050
 0.7770	50.0250
 0.7780	50.0450
 0.7790	50.0640
 0.7800	50.0810
 0.7810	50.0990
 0.7820	50.1180
 0.7830	50.1390
 0.7840	50.1540
 0.7850	50.1680
 0.7860	50.1830
 0.7870	50.1980
 0.7880	50.2130
 0.7890	50.2290
 0.7900	50.2420
 0.7910	50.2540
 0.7920	50.2680
 0.7930	50.2840
 0.7940	50.2960
 0.7950	50.3030
 0.7960	50.3100
 0.7970	50.3190
 0.7980	50.3280
 0.7990	50.3350
 0.8000	50.3430
 0.8010	50.3500
 0.8020	50.3480
 0.8030	50.3510
 0.8040	50.3580
 0.8050	50.3610
 0.8060	50.3620
 0.8070	50.3600
 0.8080	50.3570
 0.8090	50.3590
 0.8100	50.3550
 0.8110	50.3520
 0.8120	50.3510
 0.8130	50.3460
 0.8140	50.3360
 0.8150	50.3280
 0.8160	50.3260
 0.8170	50.3210
 0.8180	50.3160
 0.8190	50.3120
 0.8200	50.3060
 0.8210	50.3010
 0.8220	50.2910
 0.8230	50.2750
 0.8240	50.2640
 0.8250	50.2580
 0.8260	50.2440
 0.8270	50.2240
 0.8280	50.2140
 0.8290	50.2040
 0.8300	50.1880
 0.8310	50.1670
 0.8320	50.1520
 0.8330	50.1400
 0.8340	50.1290
 0.8350	50.1200
 0.8360	50.1100
 0.8370	50.1020
 0.8380	50.0930
 0.8390	50.0780
 0.8400	50.0750
 0.8410	50.0770
 0.8420	50.0770
 0.8430	50.0680
 0.8440	50.0660
 0.8450	50.0670
 0.8460	50.0650
 0.8470	50.0590
 0.8480	50.0510
 0.8490	50.0450
 0.8500	50.0450
 0.8510	50.0460
 0.8520	50.0480
 0.8530	50.0480
 0.8540	50.0450
 0.8550	50.0420
 0.8560	50.0430
 0.8570	50.0460
 0.8580	50.0440
 0.8590	50.0430
 0.8600	50.0460
 0.8610	50.0520
 0.8620	50.0470
 0.8630	50.0470
 0.8640	50.0520
 0.8650	50.0540
 0.8660	50.0530
 0.8670	50.0560
 0.8680	50.0630
 0.8690	50.0710
 0.8700	50.0670
 0.8710	50.0680
 0.8720	50.0740
 0.8730	50.0790
 0.8740	50.0890
 0.8750	50.0950
 0.8760	50.0940
 0.8770	50.0950
 0.8780	50.1020
 0.8790	50.1110
 0.8800	50.1190
 0.8810	50.1170
 0.8820	50.1190
 0.8830	50.1240
 0.8840	50.1280
 0.8850	50.1370
 0.8860	50.1390
 0.8870	50.1370
 0.8880	50.1340
 0.8890	50.1360
 0.8900	50.1420
 0.8910	50.1470
 0.8920	50.1480
 0.8930	50.1470
 0.8940	50.1520
 0.8950	50.1580
 0.8960	50.1570
 0.8970	50.1620
 0.8980	50.1680
 0.8990	50.1730
 0.9000	50.1740
 0.9010	50.1690
 0.9020	50.1660
 0.9030	50.1670
 0.9040	50.1720
 0.9050	50.1790
 0.9060	50.1780
 0.9070	50.1680
 0.9080	50.1750
 0.9090	50.1810
 0.9100	50.1800
 0.9110	50.1730
 0.9120	50.1740
 0.9130	50.1730
 0.9140	50.1710
 0.9150	50.1710
 0.9160	50.1570
 0.9170	50.1500
 0.9180	50.1480
 0.9190	50.1420
 0.9200	50.1230
 0.9210	50.1070
 0.9220	50.0950
 0.9230	50.0810
 0.9240	50.0720
 0.9250	50.0530
 0.9260	50.0270
 0.9270	50.0100
 0.9280	49.9860
 0.9290	49.9560
 0.9300	49.9240
 0.9310	49.8890
 0.9320	49.8620
 0.9330	49.8270
 0.9340	49.7840
 0.9350	49.7520
 0.9360	49.7180
 0.9370	49.6760
 0.9380	49.6280
 0.9390	49.5890
 0.9400	49.5450
 0.9410	49.5000
 0.9420	49.4510
 0.9430	49.3890
 0.9440	49.3280
 0.9450	49.2650
 0.9460	49.1960
 0.9470	49.1160
 0.9480	49.0350
 0.9490	48.9480
 0.9500	48.8520
 0.9510	48.7470
 0.9520	48.6390
 0.9530	48.5360
 0.9540	48.4370
 0.9550	48.3230
 0.9560	48.2200
 0.9570	48.1190
 0.9580	48.0110
 0.9590	47.9200
 0.9600	47.8490
 0.9610	47.7880
 0.9620	47.7220
 0.9630	47.6630
 0.9640	47.6140
 0.9650	47.5720
 0.9660	47.5350
 0.9670	47.5100
 0.9680	47.4770
 0.9690	47.4540
 0.9700	47.4570
 0.9710	47.4230
 0.9720	47.4060
 0.9730	47.4090
 0.9740	47.4070
 0.9750	47.3900
 0.9760	47.3870
 0.9770	47.3990
 0.9780	47.4080
 0.9790	47.4080
 0.9800	47.4080
 0.9810	47.4170
 0.9820	47.4330
 0.9830	47.4370
 0.9840	47.4590
 0.9850	47.4930
 0.9860	47.5180
 0.9870	47.5570
 0.9880	47.5760
 0.9890	47.5850
 0.9900	47.6080
 0.9910	47.6420
 0.9920	47.7140
 0.9930	47.7850
 0.9940	47.8570
 0.9950	47.9280
 0.9960	48.0000
 0.9970	48.0710
 0.9980	48.1430
 0.9990	48.2140
 1.0000	48.2860
 1.0010	48.3570
 1.0020	48.4280
 1.0030	48.5000
 1.0040	48.5710
 1.0050	48.6430
 1.0060	48.7140
 1.0070	48.7860
 1.0080	48.8570
 1.0090	48.9290
 1.0100	48.9290
 1.0110	48.9650
 1.0120	49.0030
 1.0130	49.0430
 1.0140	49.0810
 1.0150	49.1200
 1.0160	49.1580
 1.0170	49.1920
 1.0180	49.2250
 1.0190	49.2610
 1.0200	49.2910
 1.0210	49.3210
 1.0220	49.3530
 1.0230	49.3840
 1.0240	49.4120
 1.0250	49.4440
 1.0260	49.4800
 1.0270	49.5120
 1.0280	49.5450
 1.0290	49.5760
 1.0300	49.6000
 1.0310	49.6290
 1.0320	49.6600
 1.0330	49.6880
 1.0340	49.7200
 1.0350	49.7480
 1.0360	49.7720
 1.0370	49.7980
 1.0380	49.8240
 1.0390	49.8500
 1.0400	49.8750
 1.0410	49.8990
 1.0420	49.9240
 1.0430	49.9500
 1.0440	49.9740
 1.0450	49.9980
 1.0460	50.0200
 1.0470	50.0400
 1.0480	50.0590
 1.0490	50.0780
 1.0500	50.0960
 1.0510	50.1130
 1.0520	50.1280
 1.0530	50.1450
 1.0540	50.1650
 1.0550	50.1800
 1.0560	50.1970
 1.0570	50.2080
 1.0580	50.2120
 1.0590	50.2210
 1.0600	50.2280
 1.0610	50.2370
 1.0620	50.2480
 1.0630	50.2560
 1.0640	50.2610
 1.0650	50.2670
 1.0660	50.2720
 1.0670	50.2760
 1.0680	50.2800
 1.0690	50.2820
 1.0700	50.2850
 1.0710	50.2870
 1.0720	50.2870
 1.0730	50.2870
 1.0740	50.2850
 1.0750	50.2780
 1.0760	50.2760
 1.0770	50.2770
 1.0780	50.2720
 1.0790	50.2690
 1.0800	50.2610
 1.0810	50.2450
 1.0820	50.2340
 1.0830	50.2260
 1.0840	50.2170
 1.0850	50.2120
 1.0860	50.2040
 1.0870	50.1930
 1.0880	50.1800
 1.0890	50.1650
 1.0900	50.1470
 1.0910	50.1310
 1.0920	50.1140
 1.0930	50.0980
 1.0940	50.0860
 1.0950	50.0680
 1.0960	50.0470
 1.0970	50.0270
 1.0980	50.0030
 1.0990	49.9820
 1.1000	49.9630
 1.1010	49.9430
 1.1020	49.9220
 1.1030	49.8990
 1.1040	49.8740
 1.1050	49.8480
 1.1060	49.8230
 1.1070	49.7980
 1.1080	49.7720
 1.1090	49.7480
 1.1100	49.7200
 1.1110	49.6910
 1.1120	49.6580
 1.1130	49.6210
 1.1140	49.5840
 1.1150	49.5460
 1.1160	49.5050
 1.1170	49.4650
 1.1180	49.4190
 1.1190	49.3670
 1.1200	49.3120
 1.1210	49.2550
 1.1220	49.1910
 1.1230	49.1240
 1.1240	49.0520
 1.1250	48.9740
 1.1260	48.8930
 1.1270	48.7980
 1.1280	48.6960
 1.1290	48.5830
 1.1300	48.4590
 1.1310	48.3270
 1.1320	48.1900
 1.1330	48.0390
 1.1340	47.8750
 1.1350	47.7050
 1.1360	47.5250
 1.1370	47.3360
 1.1380	47.1390
 1.1390	46.9360
 1.1400	46.7240
 1.1410	46.5050
 1.1420	46.2840
 1.1430	46.0590
 1.1440	45.8370
 1.1450	45.6090
 1.1460	45.3940
 1.1470	45.1790
 1.1480	44.9770
 1.1490	44.7810
 1.1500	44.5980
 1.1510	44.4230
 1.1520	44.2630
 1.1530	44.1130
 1.1540	43.9780
 1.1550	43.8570
 1.1560	43.7480
 1.1570	43.6540
 1.1580	43.5700
 1.1590	43.4960
 1.1600	43.4320
 1.1610	43.3760
 1.1620	43.3270
 1.1630	43.2870
 1.1640	43.2550
 1.1650	43.2260
 1.1660	43.2040
 1.1670	43.1830
 1.1680	43.1660
 1.1690	43.1500
 1.1700	43.1380
 1.1710	43.1260
 1.1720	43.1180
 1.1730	43.1070
 1.1740	43.0970
 1.1750	43.0860
 1.1760	43.0700
 1.1770	43.0540
 1.1780	43.0360
 1.1790	43.0190
 1.1800	43.0020
 1.1810	42.9830
 1.1820	42.9650
 1.1830	42.9450
 1.1840	42.9260
 1.1850	42.9070
 1.1860	42.8860
 1.1870	42.8660
 1.1880	42.8490
 1.1890	42.8340
 1.1900	42.8190
 1.1910	42.8080
 1.1920	42.7970
 1.1930	42.7820
 1.1940	42.7720
 1.1950	42.7630
 1.1960	42.7580
 1.1970	42.7540
 1.1980	42.7550
 1.1990	42.7580
 1.2000	42.7630
 1.2010	42.7710
 1.2020	42.7800
 1.2030	42.7910
 1.2040	42.8060
 1.2050	42.8250
 1.2060	42.8450
 1.2070	42.8660
 1.2080	42.8910
 1.2090	42.9160
 1.2100	42.9450
 1.2110	42.9770
 1.2120	43.0110
 1.2130	43.0470
 1.2140	43.0860
 1.2150	43.1250
 1.2160	43.1660
 1.2170	43.2080
 1.2180	43.2520
 1.2190	43.2960
 1.2200	43.3400
 1.2210	43.3870
 1.2220	43.4340
 1.2230	43.4790
 1.2240	43.5270
 1.2250	43.5730
 1.2260	43.6170
 1.2270	43.6600
 1.2280	43.7000
 1.2290	43.7390
 1.2300	43.7770
 1.2310	43.8130
 1.2320	43.8510
 1.2330	43.8850
 1.2340	43.9180
 1.2350	43.9500
 1.2360	43.9810
 1.2370	44.0100
 1.2380	44.0400
 1.2390	44.0700
 1.2400	44.0970
 1.2410	44.1230
 1.2420	44.1500
 1.2430	44.1740
 1.2440	44.1970
 1.2450	44.2190
 1.2460	44.2380
 1.2470	44.2600
 1.2480	44.2830
 1.2490	44.3050
 1.2500	44.3260
 1.2510	44.3410
 1.2520	44.3540
 1.2530	44.3680
 1.2540	44.3820
 1.2550	44.3960
 1.2560	44.4050
 1.2570	44.4110
 1.2580	44.4160
 1.2590	44.4220
 1.2600	44.4300
 1.2610	44.4350
 1.2620	44.4390
 1.2630	44.4400
 1.2640	44.4390
 1.2650	44.4350
 1.2660	44.4300
 1.2670	44.4260
 1.2680	44.4210
 1.2690	44.4140
 1.2700	44.4070
 1.2710	44.3980
 1.2720	44.3850
 1.2730	44.3700
 1.2740	44.3560
 1.2750	44.3380
 1.2760	44.3200
 1.2770	44.3020
 1.2780	44.2780
 1.2790	44.2510
 1.2800	44.2250
 1.2810	44.1960
 1.2820	44.1670
 1.2830	44.1360
 1.2840	44.1030
 1.2850	44.0670
 1.2860	44.0300
 1.2870	43.9880
 1.2880	43.9430
 1.2890	43.8930
 1.2900	43.8420
 1.2910	43.7890
 1.2920	43.7330
 1.2930	43.6730
 1.2940	43.6090
 1.2950	43.5410
 1.2960	43.4720
 1.2970	43.4010
 1.2980	43.3260
 1.2990	43.2460
 1.3000	43.1650
 1.3010	43.0770
 1.3020	42.9860
 1.3030	42.8930
 1.3040	42.7930
 1.3050	42.6880
 1.3060	42.5830
 1.3070	42.4730
 1.3080	42.3600
 1.3090	42.2440
 1.3100	42.1240
 1.3110	41.9980
 1.3120	41.8650
 1.3130	41.7280
 1.3140	41.5890
 1.3150	41.4450
 1.3160	41.2980
 1.3170	41.1510
 1.3180	41.0000
 1.3190	40.8420
 1.3200	40.6820
 1.3210	40.5170
 1.3220	40.3470
 1.3230	40.1760
 1.3240	39.9990
 1.3250	39.8220
 1.3260	39.6430
 1.3270	39.4590
 1.3280	39.2770
 1.3290	39.0910
 1.3300	38.9040
 1.3310	38.7160
 1.3320	38.5240
 1.3330	38.3330
 1.3340	38.1410
 1.3350	37.9480
 1.3360	37.7580
 1.3370	37.5650
 1.3380	37.3730
 1.3390	37.1840
 1.3400	36.9950
 1.3410	36.8110
 1.3420	36.6290
 1.3430	36.4500
 1.3440	36.2730
 1.3450	36.0960
 1.3460	35.9190
 1.3470	35.7470
 1.3480	35.5760
 1.3490	35.4090
 1.3500	35.2460
 1.3510	35.0840
 1.3520	34.9200
 1.3530	34.7570
 1.3540	34.5940
 1.3550	34.4320
 1.3560	34.2690
 1.3570	34.1060
 1.3580	33.9420
 1.3590	33.7750
 1.3600	33.6040
 1.3610	33.4290
 1.3620	33.2480
 1.3630	33.0610
 1.3640	32.8670
 1.3650	32.6650
 1.3660	32.4570
 1.3670	32.2390
 1.3680	32.0100
 1.3690	31.7690
 1.3700	31.5110
 1.3710	31.2400
 1.3720	30.9530
 1.3730	30.6480
 1.3740	30.3300
 1.3750	29.9930
 1.3760	29.6340
 1.3770	29.2560
 1.3780	28.8540
 1.3790	28.4320
 1.3800	27.9940
 1.3810	27.5340
 1.3820	27.0640
 1.3830	26.5790
 1.3840	26.0850
 1.3850	25.5750
 1.3860	25.0640
 1.3870	24.5380
 1.3880	24.0200
 1.3890	23.5000
 1.3900	22.9810
 1.3910	22.4720
 1.3920	21.9660
 1.3930	21.4660
 1.3940	20.9780
 1.3950	20.4980
 1.3960	20.0340
 1.3970	19.5890
 1.3980	19.1590
 1.3990	18.7550
 1.4000	18.3690
 1.4010	18.0000
 1.4020	17.6550
 1.4030	17.3270
 1.4040	17.0210
 1.4050	16.7360
 1.4060	16.4690
 1.4070	16.2250
 1.4080	15.9990
 1.4090	15.7880
 1.4100	15.5960
 1.4110	15.4200
 1.4120	15.2570
 1.4130	15.1080
 1.4140	14.9720
 1.4150	14.8490
 1.4160	14.7380
 1.4170	14.6370
 1.4180	14.5460
 1.4190	14.4630
 1.4200	14.3870
 1.4210	14.3190
 1.4220	14.2580
 1.4230	14.2050
 1.4240	14.1580
 1.4250	14.1140
 1.4260	14.0760
 1.4270	14.0420
 1.4280	14.0120
 1.4290	13.9860
 1.4300	13.9650
 1.4310	13.9460
 1.4320	13.9320
 1.4330	13.9180
 1.4340	13.9080
 1.4350	13.8990
 1.4360	13.8940
 1.4370	13.8890
 1.4380	13.8880
 1.4390	13.8890
 1.4400	13.8910
 1.4410	13.8940
 1.4420	13.8990
 1.4430	13.9050
 1.4440	13.9120
 1.4450	13.9190
 1.4460	13.9270
 1.4470	13.9360
 1.4480	13.9460
 1.4490	13.9570
 1.4500	13.9700
 1.4510	13.9820
 1.4520	13.9950
 1.4530	14.0090
 1.4540	14.0230
 1.4550	14.0390
 1.4560	14.0560
 1.4570	14.0740
 1.4580	14.0960
 1.4590	14.1180
 1.4600	14.1430
 1.4610	14.1700
 1.4620	14.1980
 1.4630	14.2310
 1.4640	14.2650
 1.4650	14.3020
 1.4660	14.3420
 1.4670	14.3850
 1.4680	14.4320
 1.4690	14.4820
 1.4700	14.5340
 1.4710	14.5910
 1.4720	14.6500
 1.4730	14.7090
 1.4740	14.7720
 1.4750	14.8360
 1.4760	14.9030
 1.4770	14.9720
 1.4780	15.0440
 1.4790	15.1160
 1.4800	15.1900
 1.4810	15.2650
 1.4820	15.3440
 1.4830	15.4220
 1.4840	15.5020
 1.4850	15.5840
 1.4860	15.6650
 1.4870	15.7490
 1.4880	15.8330
 1.4890	15.9180
 1.4900	16.0030
 1.4910	16.0900
 1.4920	16.1780
 1.4930	16.2670
 1.4940	16.3550
 1.4950	16.4440
 1.4960	16.5340
 1.4970	16.6230
 1.4980	16.7140
 1.4990	16.8060
 1.5000	16.8990
 1.5010	16.9920
 1.5020	17.0850
 1.5030	17.1790
 1.5040	17.2720
 1.5050	17.3650
 1.5060	17.4590
 1.5070	17.5530
 1.5080	17.6480
 1.5090	17.7430
 1.5100	17.8380
 1.5110	17.9310
 1.5120	18.0250
 1.5130	18.1180
 1.5140	18.2120
 1.5150	18.3060
 1.5160	18.4010
 1.5170	18.4960
 1.5180	18.5910
 1.5190	18.6860
 1.5200	18.7800
 1.5210	18.8730
 1.5220	18.9660
 1.5230	19.0580
 1.5240	19.1510
 1.5250	19.2430
 1.5260	19.3360
 1.5270	19.4290
 1.5280	19.5190
 1.5290	19.6080
 1.5300	19.6960
 1.5310	19.7850
 1.5320	19.8740
 1.5330	19.9640
 1.5340	20.0540
 1.5350	20.1420
 1.5360	20.2290
 1.5370	20.3150
 1.5380	20.4000
 1.5390	20.4870
 1.5400	20.5730
 1.5410	20.6590
 1.5420	20.7450
 1.5430	20.8300
 1.5440	20.9150
 1.5450	20.9990
 1.5460	21.0810
 1.5470	21.1650
 1.5480	21.2470
 1.5490	21.3280
 1.5500	21.4100
 1.5510	21.4890
 1.5520	21.5690
 1.5530	21.6480
 1.5540	21.7270
 1.5550	21.8050
 1.5560	21.8830
 1.5570	21.9600
 1.5580	22.0360
 1.5590	22.1100
 1.5600	22.1870
 1.5610	22.2620
 1.5620	22.3370
 1.5630	22.4110
 1.5640	22.4820
 1.5650	22.5530
 1.5660	22.6250
 1.5670	22.6980
 1.5680	22.7700
 1.5690	22.8400
 1.5700	22.9080
 1.5710	22.9760
 1.5720	23.0430
 1.5730	23.1110
 1.5740	23.1790
 1.5750	23.2460
 1.5760	23.3130
 1.5770	23.3770
 1.5780	23.4420
 1.5790	23.5070
 1.5800	23.5700
 1.5810	23.6340
 1.5820	23.6960
 1.5830	23.7600
 1.5840	23.8230
 1.5850	23.8850
 1.5860	23.9470
 1.5870	24.0080
 1.5880	24.0670
 1.5890	24.1270
 1.5900	24.1860
 1.5910	24.2450
 1.5920	24.3030
 1.5930	24.3610
 1.5940	24.4190
 1.5950	24.4760
 1.5960	24.5330
 1.5970	24.5900
 1.5980	24.6460
 1.5990	24.7010
 1.6000	24.7570
 1.6010	24.8110
 1.6020	24.8640
 1.6030	24.9180
 1.6040	24.9690
 1.6050	25.0190
 1.6060	25.0690
 1.6070	25.1180
 1.6080	25.1660
 1.6090	25.2150
 1.6100	25.2630
 1.6110	25.3100
 1.6120	25.3570
 1.6130	25.4050
 1.6140	25.4500
 1.6150	25.4940
 1.6160	25.5380
 1.6170	25.5800
 1.6180	25.6220
 1.6190	25.6650
 1.6200	25.7050
 1.6210	25.7440
 1.6220	25.7840
 1.6230	25.8220
 1.6240	25.8600
 1.6250	25.8970
 1.6260	25.9320
 1.6270	25.9660
 1.6280	26.0000
 1.6290	26.0330
 1.6300	26.0650
 1.6310	26.0950
 1.6320	26.1240
 1.6330	26.1510
 1.6340	26.1770
 1.6350	26.2010
 1.6360	26.2230
 1.6370	26.2430
 1.6380	26.2610
 1.6390	26.2760
 1.6400	26.2900
 1.6410	26.3010
 1.6420	26.3110
 1.6430	26.3170
 1.6440	26.3180
 1.6450	26.3180
 1.6460	26.3150
 1.6470	26.3100
 1.6480	26.3040
 1.6490	26.2960
 1.6500	26.2850
 1.6510	26.2720
 1.6520	26.2580
 1.6530	26.2410
 1.6540	26.2250
 1.6550	26.2100
 1.6560	26.1960
 1.6570	26.1830
 1.6580	26.1720
 1.6590	26.1620
 1.6600	26.1530
 1.6610	26.1480
 1.6620	26.1450
 1.6630	26.1470
 1.6640	26.1510
 1.6650	26.1580
 1.6660	26.1690
 1.6670	26.1810
 1.6680	26.1950
 1.6690	26.2100
 1.6700	26.2240
 1.6710	26.2380
 1.6720	26.2500
 1.6730	26.2600
 1.6740	26.2670
 1.6750	26.2700
 1.6760	26.2700
 1.6770	26.2660
 1.6780	26.2610
 1.6790	26.2540
 1.6800	26.2410
 1.6810	26.2250
 1.6820	26.2060
 1.6830	26.1820
 1.6840	26.1540
 1.6850	26.1270
 1.6860	26.0950
 1.6870	26.0610
 1.6880	26.0290
 1.6890	25.9920
 1.6900	25.9540
 1.6910	25.9130
 1.6920	25.8710
 1.6930	25.8270
 1.6940	25.7820
 1.6950	25.7350
 1.6960	25.6880
 1.6970	25.6370
 1.6980	25.5860
 1.6990	25.5350
 1.7000	25.4830
 1.7010	25.4290
 1.7020	25.3760
 1.7030	25.3210
 1.7040	25.2670
 1.7050	25.2140
 1.7060	25.1600
 1.7070	25.1070
 1.7080	25.0540
 1.7090	25.0020
 1.7100	24.9510
 1.7110	24.9010
 1.7120	24.8520
 1.7130	24.8030
 1.7140	24.7550
 1.7150	24.7080
 1.7160	24.6600
 1.7170	24.6130
 1.7180	24.5650
 1.7190	24.5180
 1.7200	24.4720
 1.7210	24.4270
 1.7220	24.3810
 1.7230	24.3360
 1.7240	24.2950
 1.7250	24.2540
 1.7260	24.2150
 1.7270	24.1770
 1.7280	24.1390
 1.7290	24.1020
 1.7300	24.0700
 1.7310	24.0370
 1.7320	24.0050
 1.7330	23.9720
 1.7340	23.9400
 1.7350	23.9040
 1.7360	23.8670
 1.7370	23.8270
 1.7380	23.7830
 1.7390	23.7390
 1.7400	23.6920
 1.7410	23.6420
 1.7420	23.5910
 1.7430	23.5370
 1.7440	23.4780
 1.7450	23.4170
 1.7460	23.3530
 1.7470	23.2910
 1.7480	23.2270
 1.7490	23.1630
 1.7500	23.1010
 1.7510	23.0380
 1.7520	22.9760
 1.7530	22.9140
 1.7540	22.8520
 1.7550	22.7920
 1.7560	22.7310
 1.7570	22.6740
 1.7580	22.6200
 1.7590	22.5670
 1.7600	22.5160
 1.7610	22.4650
 1.7620	22.4160
 1.7630	22.3690
 1.7640	22.3240
 1.7650	22.2830
 1.7660	22.2420
 1.7670	22.2020
 1.7680	22.1640
 1.7690	22.1260
 1.7700	22.0900
 1.7710	22.0550
 1.7720	22.0210
 1.7730	21.9870
 1.7740	21.9550
 1.7750	21.9230
 1.7760	21.8910
 1.7770	21.8610
 1.7780	21.8310
 1.7790	21.8000
 1.7800	21.7720
 1.7810	21.7450
 1.7820	21.7200
 1.7830	21.6980
 1.7840	21.6760
 1.7850	21.6570
 1.7860	21.6380
 1.7870	21.6200
 1.7880	21.6020
 1.7890	21.5840
 1.7900	21.5670
 1.7910	21.5540
 1.7920	21.5440
 1.7930	21.5330
 1.7940	21.5250
 1.7950	21.5170
 1.7960	21.5080
 1.7970	21.5010
 1.7980	21.4980
 1.7990	21.4940
 1.8000	21.4910
 1.8010	21.4890
 1.8020	21.4860
 1.8030	21.4850
 1.8040	21.4860
 1.8050	21.4850
 1.8060	21.4850
 1.8070	21.4840
 1.8080	21.4830
 1.8090	21.4830
 1.8100	21.4840
 1.8110	21.4860
 1.8120	21.4850
 1.8130	21.4820
 1.8140	21.4820
 1.8150	21.4790
 1.8160	21.4760
 1.8170	21.4740
 1.8180	21.4700
 1.8190	21.4670
 1.8200	21.4620
 1.8210	21.4570
 1.8220	21.4490
 1.8230	21.4400
 1.8240	21.4290
 1.8250	21.4140
 1.8260	21.4000
 1.8270	21.3490
 1.8280	21.2980
 1.8290	21.2470
 1.8300	21.1960
 1.8310	21.1450
 1.8320	21.0940
 1.8330	21.0420
 1.8340	20.9910
 1.8350	20.9910
 1.8360	20.9510
 1.8370	20.9100
 1.8380	20.8640
 1.8390	20.8140
 1.8400	20.7590
 1.8410	20.7000
 1.8420	20.6370
 1.8430	20.5690
 1.8440	20.4960
 1.8450	20.4180
 1.8460	20.3330
 1.8470	20.2410
 1.8480	20.1410
 1.8490	20.0310
 1.8500	19.9160
 1.8510	19.7950
 1.8520	19.6650
 1.8530	19.5260
 1.8540	19.3820
 1.8550	19.2260
 1.8560	19.0570
 1.8570	18.8800
 1.8580	18.6970
 1.8590	18.5070
 1.8600	18.3080
 1.8610	18.1030
 1.8620	17.8890
 1.8630	17.6660
 1.8640	17.4350
 1.8650	17.1950
 1.8660	16.9460
 1.8670	16.6850
 1.8680	16.4150
 1.8690	16.1370
 1.8700	15.8540
 1.8710	15.5640
 1.8720	15.2760
 1.8730	14.9860
 1.8740	14.6940
 1.8750	14.4100
 1.8760	14.1260
 1.8770	13.8450
 1.8780	13.5730
 1.8790	13.3070
 1.8800	13.0520
 1.8810	12.8030
 1.8820	12.5650
 1.8830	12.3350
 1.8840	12.1130
 1.8850	11.9010
 1.8860	11.7000
 1.8870	11.5090
 1.8880	11.3290
 1.8890	11.1600
 1.8900	11.0020
 1.8910	10.8540
 1.8920	10.7180
 1.8930	10.5920
 1.8940	10.4770
 1.8950	10.3710
 1.8960	10.2740
 1.8970	10.1870
 1.8980	10.1080
 1.8990	10.0360
 1.9000	 9.9690
 1.9010	 9.9090
 1.9020	 9.8530
 1.9030	 9.8010
 1.9040	 9.7570
 1.9050	 9.7150
 1.9060	 9.6790
 1.9070	 9.6480
 1.9080	 9.6190
 1.9090	 9.5940
 1.9100	 9.5730
 1.9110	 9.5550
 1.9120	 9.5400
 1.9130	 9.5250
 1.9140	 9.5140
 1.9150	 9.5020
 1.9160	 9.4900
 1.9170	 9.4820
 1.9180	 9.4730
 1.9190	 9.4640
 1.9200	 9.4580
 1.9210	 9.4530
 1.9220	 9.4490
 1.9230	 9.4480
 1.9240	 9.4470
 1.9250	 9.4480
 1.9260	 9.4490
 1.9270	 9.4500
 1.9280	 9.4530
 1.9290	 9.4570
 1.9300	 9.4610
 1.9310	 9.4660
 1.9320	 9.4740
 1.9330	 9.4810
 1.9340	 9.4900
 1.9350	 9.4980
 1.9360	 9.5060
 1.9370	 9.5140
 1.9380	 9.5220
 1.9390	 9.5320
 1.9400	 9.5420
 1.9410	 9.5560
 1.9420	 9.5680
 1.9430	 9.5790
 1.9440	 9.5900
 1.9450	 9.5980
 1.9460	 9.6080
 1.9470	 9.6200
 1.9480	 9.6320
 1.9490	 9.6430
 1.9500	 9.6590
 1.9510	 9.6710
 1.9520	 9.6840
 1.9530	 9.6980
 1.9540	 9.7100
 1.9550	 9.7240
 1.9560	 9.7420
 1.9570	 9.7570
 1.9580	 9.7730
 1.9590	 9.7880
 1.9600	 9.7990
 1.9610	 9.8130
 1.9620	 9.8270
 1.9630	 9.8410
 1.9640	 9.8560
 1.9650	 9.8740
 1.9660	 9.8930
 1.9670	 9.9110
 1.9680	 9.9290
 1.9690	 9.9480
 1.9700	 9.9660
 1.9710	 9.9820
 1.9720	10.0010
 1.9730	10.0240
 1.9740	10.0420
 1.9750	10.0600
 1.9760	10.0790
 1.9770	10.0990
 1.9780	10.1180
 1.9790	10.1380
 1.9800	10.1600
 1.9810	10.1800
 1.9820	10.1980
 1.9830	10.2190
 1.9840	10.2420
 1.9850	10.2660
 1.9860	10.2910
 1.9870	10.3150
 1.9880	10.3400
 1.9890	10.3650
 1.9900	10.3880
 1.9910	10.4110
 1.9920	10.4330
 1.9930	10.4540
 1.9940	10.4770
 1.9950	10.5010
 1.9960	10.5250
 1.9970	10.5480
 1.9980	10.5720
 1.9990	10.5960
 2.0000	10.6210
 2.0010	10.6470
 2.0020	10.6740
 2.0030	10.7010
 2.0040	10.7260
 2.0050	10.7530
 2.0060	10.7800
 2.0070	10.8070
 2.0080	10.8360
 2.0090	10.8630
 2.0100	10.8870
 2.0110	10.9130
 2.0120	10.9400
 2.0130	10.9640
 2.0140	10.9920
 2.0150	11.0210
 2.0160	11.0480
 2.0170	11.0770
 2.0180	11.1020
 2.0190	11.1240
 2.0200	11.1470
 2.0210	11.1680
 2.0220	11.1910
 2.0230	11.2150
 2.0240	11.2390
 2.0250	11.2650
 2.0260	11.2890
 2.0270	11.3140
 2.0280	11.3390
 2.0290	11.3630
 2.0300	11.3850
 2.0310	11.4080
 2.0320	11.4300
 2.0330	11.4520
 2.0340	11.4740
 2.0350	11.4960
 2.0360	11.5170
 2.0370	11.5380
 2.0380	11.5620
 2.0390	11.5830
 2.0400	11.6040
 2.0410	11.6230
 2.0420	11.6370
 2.0430	11.6510
 2.0440	11.6670
 2.0450	11.6810
 2.0460	11.6990
 2.0470	11.7200
 2.0480	11.7400
 2.0490	11.7630
 2.0500	11.7830
 2.0510	11.8020
 2.0520	11.8200
 2.0530	11.8380
 2.0540	11.8550
 2.0550	11.8710
 2.0560	11.8870
 2.0570	11.9040
 2.0580	11.9200
 2.0590	11.9380
 2.0600	11.9580
 2.0610	11.9770
 2.0620	11.9970
 2.0630	12.0150
 2.0640	12.0340
 2.0650	12.0520
 2.0660	12.0710
 2.0670	12.0890
 2.0680	12.1040
 2.0690	12.1220
 2.0700	12.1430
 2.0710	12.1620
 2.0720	12.1830
 2.0730	12.2050
 2.0740	12.2230
 2.0750	12.2360
 2.0760	12.2540
 2.0770	12.2710
 2.0780	12.2910
 2.0790	12.3160
 2.0800	12.3360
 2.0810	12.3550
 2.0820	12.3740
 2.0830	12.3890
 2.0840	12.4070
 2.0850	12.4270
 2.0860	12.4460
 2.0870	12.4660
 2.0880	12.4840
 2.0890	12.5020
 2.0900	12.5190
 2.0910	12.5370
 2.0920	12.5540
 2.0930	12.5730
 2.0940	12.5960
 2.0950	12.6140
 2.0960	12.6300
 2.0970	12.6480
 2.0980	12.6650
 2.0990	12.6830
 2.1000	12.7020
 2.1010	12.7210
 2.1020	12.7350
 2.1030	12.7530
 2.1040	12.7740
 2.1050	12.7950
 2.1060	12.8140
 2.1070	12.8360
 2.1080	12.8550
 2.1090	12.8710
 2.1100	12.8900
 2.1110	12.9090
 2.1120	12.9280
 2.1130	12.9470
 2.1140	12.9640
 2.1150	12.9790
 2.1160	12.9950
 2.1170	13.0090
 2.1180	13.0260
 2.1190	13.0440
 2.1200	13.0620
 2.1210	13.0810
 2.1220	13.1000
 2.1230	13.1180
 2.1240	13.1340
 2.1250	13.1500
 2.1260	13.1640
 2.1270	13.1790
 2.1280	13.1920
 2.1290	13.2060
 2.1300	13.2220
 2.1310	13.2370
 2.1320	13.2510
 2.1330	13.2660
 2.1340	13.2770
 2.1350	13.2920
 2.1360	13.3090
 2.1370	13.3260
 2.1380	13.3440
 2.1390	13.3610
 2.1400	13.3760
 2.1410	13.3910
 2.1420	13.4070
 2.1430	13.4230
 2.1440	13.4390
 2.1450	13.4560
 2.1460	13.4720
 2.1470	13.4890
 2.1480	13.5040
 2.1490	13.5210
 2.1500	13.5360
 2.1510	13.5480
 2.1520	13.5640
 2.1530	13.5830
 2.1540	13.5990
 2.1550	13.6160
 2.1560	13.6320
 2.1570	13.6440
 2.1580	13.6560
 2.1590	13.6680
 2.1600	13.6810
 2.1610	13.6930
 2.1620	13.7030
 2.1630	13.7150
 2.1640	13.7280
 2.1650	13.7400
 2.1660	13.7530
 2.1670	13.7640
 2.1680	13.7750
 2.1690	13.7840
 2.1700	13.7930
 2.1710	13.8020
 2.1720	13.8080
 2.1730	13.8170
 2.1740	13.8270
 2.1750	13.8360
 2.1760	13.8450
 2.1770	13.8540
 2.1780	13.8600
 2.1790	13.8680
 2.1800	13.8770
 2.1810	13.8860
 2.1820	13.8980
 2.1830	13.9080
 2.1840	13.9180
 2.1850	13.9280
 2.1860	13.9390
 2.1870	13.9490
 2.1880	13.9580
 2.1890	13.9690
 2.1900	13.9780
 2.1910	13.9850
 2.1920	13.9940
 2.1930	14.0040
 2.1940	14.0130
 2.1950	14.0220
 2.1960	14.0310
 2.1970	14.0390
 2.1980	14.0460
 2.1990	14.0520
 2.2000	14.0590
 2.2010	14.0650
 2.2020	14.0730
 2.2030	14.0850
 2.2040	14.0910
 2.2050	14.0940
 2.2060	14.0990
 2.2070	14.1030
 2.2080	14.1010
 2.2090	14.1070
 2.2100	14.1160
 2.2110	14.1230
 2.2120	14.1320
 2.2130	14.1380
 2.2140	14.1430
 2.2150	14.1440
 2.2160	14.1390
 2.2170	14.1380
 2.2180	14.1350
 2.2190	14.1330
 2.2200	14.1350
 2.2210	14.1320
 2.2220	14.1230
 2.2230	14.1190
 2.2240	14.1160
 2.2250	14.1110
 2.2260	14.1100
 2.2270	14.1040
 2.2280	14.0940
 2.2290	14.0850
 2.2300	14.0740
 2.2310	14.0620
 2.2320	14.0540
 2.2330	14.0420
 2.2340	14.0260
 2.2350	14.0090
 2.2360	13.9890
 2.2370	13.9630
 2.2380	13.9410
 2.2390	13.9200
 2.2400	13.8970
 2.2410	13.8760
 2.2420	13.8510
 2.2430	13.8250
 2.2440	13.7970
 2.2450	13.7660
 2.2460	13.7340
 2.2470	13.7010
 2.2480	13.6690
 2.2490	13.6350
 2.2500	13.6020
 2.2510	13.5700
 2.2520	13.5360
 2.2530	13.5000
 2.2540	13.4660
 2.2550	13.4310
 2.2560	13.3970
 2.2570	13.3640
 2.2580	13.3320
 2.2590	13.2990
 2.2600	13.2680
 2.2610	13.2400
 2.2620	13.2100
 2.2630	13.1800
 2.2640	13.1440
 2.2650	13.1070
 2.2660	13.0700
 2.2670	13.0360
 2.2680	13.0040
 2.2690	12.9700
 2.2700	12.9380
 2.2710	12.9010
 2.2720	12.8560
 2.2730	12.8190
 2.2740	12.7820
 2.2750	12.7510
 2.2760	12.7300
 2.2770	12.7060
 2.2780	12.6860
 2.2790	12.6610
 2.2800	12.6340
 2.2810	12.6060
 2.2820	12.5730
 2.2830	12.5450
 2.2840	12.5180
 2.2850	12.4900
 2.2860	12.4650
 2.2870	12.4380
 2.2880	12.4090
 2.2890	12.3790
 2.2900	12.3460
 2.2910	12.3170
 2.2920	12.2890
 2.2930	12.2580
 2.2940	12.2290
 2.2950	12.1980
 2.2960	12.1620
 2.2970	12.1270
 2.2980	12.0900
 2.2990	12.0550
 2.3000	12.0270
 2.3010	11.9950
 2.3020	11.9710
 2.3030	11.9500
 2.3040	11.9210
 2.3050	11.9010
 2.3060	11.8840
 2.3070	11.8660
 2.3080	11.8530
 2.3090	11.8390
 2.3100	11.8250
 2.3110	11.8200
 2.3120	11.8100
 2.3130	11.7990
 2.3140	11.7940
 2.3150	11.7890
 2.3160	11.7830
 2.3170	11.7840
 2.3180	11.7760
 2.3190	11.7600
 2.3200	11.7490
 2.3210	11.7380
 2.3220	11.7250
 2.3230	11.7130
 2.3240	11.6980
 2.3250	11.6790
 2.3260	11.6610
 2.3270	11.6430
 2.3280	11.6240
 2.3290	11.6040
 2.3300	11.5830
 2.3310	11.5560
 2.3320	11.5360
 2.3330	11.5190
 2.3340	11.5030
 2.3350	11.4940
 2.3360	11.4780
 2.3370	11.4590
 2.3380	11.4380
 2.3390	11.4070
 2.3400	11.3860
 2.3410	11.3720
 2.3420	11.3530
 2.3430	11.3350
 2.3440	11.3210
 2.3450	11.3060
 2.3460	11.2900
 2.3470	11.2810
 2.3480	11.2680
 2.3490	11.2470
 2.3500	11.2350
 2.3510	11.2270
 2.3520	11.2200
 2.3530	11.2190
 2.3540	11.2140
 2.3550	11.2000
 2.3560	11.1910
 2.3570	11.1770
 2.3580	11.1600
 2.3590	11.1420
 2.3600	11.1230
 2.3610	11.1060
 2.3620	11.0900
 2.3630	11.0770
 2.3640	11.0690
 2.3650	11.0540
 2.3660	11.0320
 2.3670	11.0220
 2.3680	11.0040
 2.3690	10.9830
 2.3700	10.9750
 2.3710	10.9610
 2.3720	10.9450
 2.3730	10.9380
 2.3740	10.9290
 2.3750	10.9090
 2.3760	10.8840
 2.3770	10.8580
 2.3780	10.8280
 2.3790	10.8100
 2.3800	10.8050
 2.3810	10.7980
 2.3820	10.7910
 2.3830	10.7730
 2.3840	10.7520
 2.3850	10.7370
 2.3860	10.7210
 2.3870	10.7050
 2.3880	10.7010
 2.3890	10.6900
 2.3900	10.6660
 2.3910	10.6460
 2.3920	10.6230
 2.3930	10.6050
 2.3940	10.5950
 2.3950	10.5820
 2.3960	10.5750
 2.3970	10.5580
 2.3980	10.5390
 2.3990	10.5310
 2.4000	10.5090
 2.4010	10.4860
 2.4020	10.4680
 2.4030	10.4490
 2.4040	10.4370
 2.4050	10.4270
 2.4060	10.4110
 2.4070	10.3920
 2.4080	10.3750
 2.4090	10.3660
 2.4100	10.3580
 2.4110	10.3490
 2.4120	10.3330
 2.4130	10.3110
 2.4140	10.2880
 2.4150	10.2620
 2.4160	10.2380
 2.4170	10.2290
 2.4180	10.2230
 2.4190	10.2090
 2.4200	10.2010
 2.4210	10.1890
 2.4220	10.1670
 2.4230	10.1460
 2.4240	10.1310
 2.4250	10.1070
 2.4260	10.0810
 2.4270	10.0610
 2.4280	10.0390
 2.4290	10.0170
 2.4300	 9.9980
 2.4310	 9.9830
 2.4320	 9.9640
 2.4330	 9.9580
 2.4340	 9.9460
 2.4350	 9.9410
 2.4360	 9.9450
 2.4370	 9.9290
 2.4380	 9.9230
 2.4390	 9.8960
 2.4400	 9.8640
 2.4410	 9.8460
 2.4420	 9.8120
 2.4430	 9.7920
 2.4440	 9.7630
 2.4450	 9.7280
 2.4460	 9.7090
 2.4470	 9.7020
 2.4480	 9.6980
 2.4490	 9.6870
 2.4500	 9.6690
 2.4510	 9.6350
 2.4520	 9.6130
 2.4530	 9.6070
 2.4540	 9.5950
 2.4550	 9.5810
 2.4560	 9.5610
 2.4570	 9.5360
 2.4580	 9.5330
 2.4590	 9.5290
 2.4600	 9.5280
 2.4610	 9.5420
 2.4620	 9.5220
 2.4630	 9.4920
 2.4640	 9.4770
 2.4650	 9.4510
 2.4660	 9.4280
 2.4670	 9.4150
 2.4680	 9.3910
 2.4690	 9.3430
 2.4700	 9.3110
 2.4710	 9.2690
 2.4720	 9.2540
 2.4730	 9.2720
 2.4740	 9.2780
 2.4750	 9.3000
 2.4760	 9.3160
 2.4770	 9.3260
 2.4780	 9.3270
 2.4790	 9.3160
 2.4800	 9.3120
 2.4810	 9.2990
 2.4820	 9.2880
 2.4830	 9.2960
 2.4840	 9.2880
 2.4850	 9.2720
 2.4860	 9.2600
 2.4870	 9.2570
 2.4880	 9.2420
 2.4890	 9.2330
 2.4900	 9.2470
 2.4910	 9.2430
 2.4920	 9.2570
 2.4930	 9.2890
 2.4940	 9.2800
 2.4950	 9.2820
 2.4960	 9.2580
 2.4970	 9.2130
 2.4980	 9.1970
 2.4990	 9.1380
 2.5000	 9.1050
