Name: Aloe bainesii
Type: vegetation
Class: Tree
Genus: Aloe
Species: bainesii
Sample No.: JPL057
Owner: JPL
Wavelength Range: VSWIR
Origin: 34.12722; - 118.11108; WGS84
Collection Date: 2/2/2016
Description: Samples were collected at the Huntington Garden in San Marino California as part of a JPL Subcontract studying HyTES imagery. Samples were taken to JPL and processed within 48 hours of collection. The same leaves were processed in the Nicolet and then measured using the ASD.
Measurement: Bidirectional reflectance
First Column: X
Second Column: Y
X Units: Wavelength (micrometer)
Y Units: Reflectance (percentage)
First X Value: 0.35
Last X Value: 2.5
Number of X Values: 2151
Additional Information: 

 0.3500	 6.9260
 0.3510	 7.0730
 0.3520	 7.0600
 0.3530	 6.2970
 0.3540	 5.1650
 0.3550	 6.9580
 0.3560	 5.7640
 0.3570	 3.2640
 0.3580	 4.5160
 0.3590	 5.9160
 0.3600	 6.6460
 0.3610	 6.1910
 0.3620	 3.6740
 0.3630	 4.6670
 0.3640	 6.1350
 0.3650	 4.9530
 0.3660	 5.5120
 0.3670	 5.4160
 0.3680	 4.7110
 0.3690	 5.1080
 0.3700	 6.0820
 0.3710	 6.1610
 0.3720	 4.8780
 0.3730	 3.5150
 0.3740	 4.6150
 0.3750	 6.2810
 0.3760	 6.0620
 0.3770	 5.2490
 0.3780	 4.8080
 0.3790	 5.0200
 0.3800	 5.5410
 0.3810	 5.4790
 0.3820	 4.8120
 0.3830	 4.0410
 0.3840	 4.5220
 0.3850	 5.5530
 0.3860	 5.8610
 0.3870	 4.6500
 0.3880	 4.9210
 0.3890	 5.2770
 0.3900	 5.2330
 0.3910	 5.5310
 0.3920	 5.4070
 0.3930	 5.0310
 0.3940	 4.8370
 0.3950	 5.5200
 0.3960	 5.4990
 0.3970	 4.7290
 0.3980	 4.0150
 0.3990	 4.3080
 0.4000	 4.6980
 0.4010	 4.7530
 0.4020	 4.8670
 0.4030	 5.3810
 0.4040	 5.6270
 0.4050	 5.1320
 0.4060	 4.9440
 0.4070	 4.8480
 0.4080	 4.8000
 0.4090	 4.8830
 0.4100	 5.2550
 0.4110	 5.3520
 0.4120	 5.0580
 0.4130	 5.2100
 0.4140	 5.2430
 0.4150	 5.1790
 0.4160	 5.1660
 0.4170	 5.0380
 0.4180	 4.9340
 0.4190	 4.9730
 0.4200	 5.2190
 0.4210	 5.1920
 0.4220	 5.1160
 0.4230	 5.1820
 0.4240	 5.1270
 0.4250	 5.2170
 0.4260	 5.4310
 0.4270	 5.6070
 0.4280	 5.6130
 0.4290	 5.4980
 0.4300	 5.4240
 0.4310	 5.6790
 0.4320	 5.7370
 0.4330	 5.6810
 0.4340	 5.6960
 0.4350	 5.7150
 0.4360	 5.7920
 0.4370	 5.8600
 0.4380	 5.7820
 0.4390	 5.8230
 0.4400	 5.9070
 0.4410	 5.9390
 0.4420	 5.9050
 0.4430	 5.8530
 0.4440	 5.8630
 0.4450	 5.9820
 0.4460	 5.9750
 0.4470	 6.0060
 0.4480	 6.0890
 0.4490	 6.0370
 0.4500	 6.0030
 0.4510	 6.0660
 0.4520	 6.2220
 0.4530	 6.2330
 0.4540	 6.2920
 0.4550	 6.4020
 0.4560	 6.4460
 0.4570	 6.4710
 0.4580	 6.4250
 0.4590	 6.3410
 0.4600	 6.4340
 0.4610	 6.4490
 0.4620	 6.4690
 0.4630	 6.6140
 0.4640	 6.5540
 0.4650	 6.4710
 0.4660	 6.5120
 0.4670	 6.7390
 0.4680	 6.7000
 0.4690	 6.5830
 0.4700	 6.6100
 0.4710	 6.6980
 0.4720	 6.7040
 0.4730	 6.6940
 0.4740	 6.8170
 0.4750	 6.8870
 0.4760	 6.8600
 0.4770	 6.7670
 0.4780	 6.7250
 0.4790	 6.8340
 0.4800	 6.9070
 0.4810	 6.7750
 0.4820	 6.7440
 0.4830	 6.7740
 0.4840	 6.8580
 0.4850	 7.0140
 0.4860	 6.9950
 0.4870	 6.9370
 0.4880	 6.9600
 0.4890	 6.9850
 0.4900	 6.9810
 0.4910	 6.9760
 0.4920	 7.0120
 0.4930	 7.0230
 0.4940	 7.0370
 0.4950	 7.0660
 0.4960	 7.0890
 0.4970	 7.1120
 0.4980	 7.1450
 0.4990	 7.2060
 0.5000	 7.3280
 0.5010	 7.4020
 0.5020	 7.3620
 0.5030	 7.2060
 0.5040	 7.3230
 0.5050	 7.5220
 0.5060	 7.6160
 0.5070	 7.6670
 0.5080	 7.6660
 0.5090	 7.7040
 0.5100	 7.8760
 0.5110	 8.0230
 0.5120	 8.1440
 0.5130	 8.2520
 0.5140	 8.3570
 0.5150	 8.5830
 0.5160	 8.8160
 0.5170	 8.9440
 0.5180	 9.1130
 0.5190	 9.3090
 0.5200	 9.5110
 0.5210	 9.7040
 0.5220	 9.9210
 0.5230	10.1480
 0.5240	10.3630
 0.5250	10.5270
 0.5260	10.7010
 0.5270	10.8960
 0.5280	11.0930
 0.5290	11.2560
 0.5300	11.4270
 0.5310	11.6040
 0.5320	11.7200
 0.5330	11.8370
 0.5340	11.9550
 0.5350	12.0580
 0.5360	12.1330
 0.5370	12.1580
 0.5380	12.1880
 0.5390	12.3220
 0.5400	12.4670
 0.5410	12.6170
 0.5420	12.7600
 0.5430	12.8500
 0.5440	12.8980
 0.5450	12.9060
 0.5460	12.8810
 0.5470	12.8530
 0.5480	12.8160
 0.5490	12.7900
 0.5500	12.8230
 0.5510	12.8200
 0.5520	12.7990
 0.5530	12.7930
 0.5540	12.7780
 0.5550	12.7110
 0.5560	12.6180
 0.5570	12.5650
 0.5580	12.4420
 0.5590	12.3230
 0.5600	12.2640
 0.5610	12.2370
 0.5620	12.1750
 0.5630	12.0660
 0.5640	11.9330
 0.5650	11.8080
 0.5660	11.6630
 0.5670	11.5050
 0.5680	11.3860
 0.5690	11.2170
 0.5700	11.0340
 0.5710	10.8850
 0.5720	10.7290
 0.5730	10.6040
 0.5740	10.5150
 0.5750	10.4440
 0.5760	10.3540
 0.5770	10.2750
 0.5780	10.2220
 0.5790	10.1530
 0.5800	10.0820
 0.5810	10.0170
 0.5820	 9.9580
 0.5830	 9.8870
 0.5840	 9.7920
 0.5850	 9.6890
 0.5860	 9.6190
 0.5870	 9.5990
 0.5880	 9.5940
 0.5890	 9.5650
 0.5900	 9.5000
 0.5910	 9.4580
 0.5920	 9.4420
 0.5930	 9.4130
 0.5940	 9.3510
 0.5950	 9.2890
 0.5960	 9.2560
 0.5970	 9.2670
 0.5980	 9.2570
 0.5990	 9.2260
 0.6000	 9.1950
 0.6010	 9.1420
 0.6020	 9.1160
 0.6030	 9.1070
 0.6040	 9.0450
 0.6050	 8.9970
 0.6060	 8.9800
 0.6070	 8.9810
 0.6080	 8.9170
 0.6090	 8.8730
 0.6100	 8.8840
 0.6110	 8.9370
 0.6120	 8.8790
 0.6130	 8.7450
 0.6140	 8.6070
 0.6150	 8.5840
 0.6160	 8.5310
 0.6170	 8.4630
 0.6180	 8.4250
 0.6190	 8.3680
 0.6200	 8.3530
 0.6210	 8.3540
 0.6220	 8.2940
 0.6230	 8.2460
 0.6240	 8.2200
 0.6250	 8.2100
 0.6260	 8.1980
 0.6270	 8.2190
 0.6280	 8.2160
 0.6290	 8.1300
 0.6300	 8.1470
 0.6310	 8.1750
 0.6320	 8.1580
 0.6330	 8.1030
 0.6340	 8.0880
 0.6350	 8.0650
 0.6360	 8.0000
 0.6370	 8.0000
 0.6380	 7.9750
 0.6390	 7.9130
 0.6400	 7.8480
 0.6410	 7.7890
 0.6420	 7.7340
 0.6430	 7.6800
 0.6440	 7.6300
 0.6450	 7.5820
 0.6460	 7.5440
 0.6470	 7.5240
 0.6480	 7.5060
 0.6490	 7.4730
 0.6500	 7.4330
 0.6510	 7.4130
 0.6520	 7.4010
 0.6530	 7.3960
 0.6540	 7.3900
 0.6550	 7.3580
 0.6560	 7.2920
 0.6570	 7.2410
 0.6580	 7.2600
 0.6590	 7.2970
 0.6600	 7.2870
 0.6610	 7.2410
 0.6620	 7.2410
 0.6630	 7.1910
 0.6640	 7.1470
 0.6650	 7.1580
 0.6660	 7.1400
 0.6670	 7.1400
 0.6680	 7.1650
 0.6690	 7.2010
 0.6700	 7.1840
 0.6710	 7.1950
 0.6720	 7.2500
 0.6730	 7.2640
 0.6740	 7.3160
 0.6750	 7.3830
 0.6760	 7.4280
 0.6770	 7.4530
 0.6780	 7.5340
 0.6790	 7.6570
 0.6800	 7.7480
 0.6810	 7.8140
 0.6820	 7.8870
 0.6830	 7.9890
 0.6840	 8.1230
 0.6850	 8.2400
 0.6860	 8.3510
 0.6870	 8.4820
 0.6880	 8.6370
 0.6890	 8.7880
 0.6900	 8.9650
 0.6910	 9.2280
 0.6920	 9.5060
 0.6930	 9.8660
 0.6940	10.3400
 0.6950	10.8440
 0.6960	11.4180
 0.6970	12.0960
 0.6980	12.8990
 0.6990	13.7710
 0.7000	14.7060
 0.7010	15.7100
 0.7020	16.7940
 0.7030	17.8910
 0.7040	19.0070
 0.7050	20.1640
 0.7060	21.4050
 0.7070	22.6700
 0.7080	23.9270
 0.7090	25.1810
 0.7100	26.5000
 0.7110	27.8760
 0.7120	29.2810
 0.7130	30.6840
 0.7140	32.1140
 0.7150	33.5990
 0.7160	35.1250
 0.7170	36.5890
 0.7180	38.1220
 0.7190	39.7140
 0.7200	41.3070
 0.7210	42.8930
 0.7220	44.4730
 0.7230	46.0410
 0.7240	47.5770
 0.7250	49.1000
 0.7260	50.5900
 0.7270	52.0320
 0.7280	53.4430
 0.7290	54.8040
 0.7300	56.1180
 0.7310	57.3830
 0.7320	58.5420
 0.7330	59.6430
 0.7340	60.7160
 0.7350	61.7540
 0.7360	62.7460
 0.7370	63.6560
 0.7380	64.4720
 0.7390	65.2470
 0.7400	66.0060
 0.7410	66.7370
 0.7420	67.4110
 0.7430	68.0030
 0.7440	68.4960
 0.7450	68.9320
 0.7460	69.3950
 0.7470	69.8170
 0.7480	70.1610
 0.7490	70.4350
 0.7500	70.7390
 0.7510	70.9940
 0.7520	71.2090
 0.7530	71.4150
 0.7540	71.5870
 0.7550	71.7490
 0.7560	71.8990
 0.7570	72.0150
 0.7580	72.0860
 0.7590	72.1510
 0.7600	72.2270
 0.7610	72.2870
 0.7620	72.3500
 0.7630	72.3980
 0.7640	72.4160
 0.7650	72.4440
 0.7660	72.4610
 0.7670	72.4720
 0.7680	72.5030
 0.7690	72.5490
 0.7700	72.5820
 0.7710	72.5890
 0.7720	72.5810
 0.7730	72.5480
 0.7740	72.5510
 0.7750	72.6230
 0.7760	72.6680
 0.7770	72.6620
 0.7780	72.6480
 0.7790	72.6820
 0.7800	72.6750
 0.7810	72.6530
 0.7820	72.6590
 0.7830	72.7280
 0.7840	72.7860
 0.7850	72.8090
 0.7860	72.8070
 0.7870	72.8350
 0.7880	72.8770
 0.7890	72.9120
 0.7900	72.9250
 0.7910	72.9460
 0.7920	72.9910
 0.7930	73.0430
 0.7940	73.0670
 0.7950	73.0810
 0.7960	73.0900
 0.7970	73.1000
 0.7980	73.1150
 0.7990	73.1510
 0.8000	73.1960
 0.8010	73.2280
 0.8020	73.2250
 0.8030	73.2610
 0.8040	73.2990
 0.8050	73.2780
 0.8060	73.2900
 0.8070	73.3150
 0.8080	73.3320
 0.8090	73.3300
 0.8100	73.3450
 0.8110	73.3140
 0.8120	73.2570
 0.8130	73.3430
 0.8140	73.3450
 0.8150	73.2930
 0.8160	73.2670
 0.8170	73.2960
 0.8180	73.2840
 0.8190	73.2410
 0.8200	73.2260
 0.8210	73.2420
 0.8220	73.2050
 0.8230	73.1360
 0.8240	73.1370
 0.8250	73.0770
 0.8260	72.9630
 0.8270	72.8430
 0.8280	72.7870
 0.8290	72.7370
 0.8300	72.6660
 0.8310	72.5600
 0.8320	72.4220
 0.8330	72.3730
 0.8340	72.3780
 0.8350	72.3430
 0.8360	72.2680
 0.8370	72.1800
 0.8380	72.1250
 0.8390	72.1520
 0.8400	72.1950
 0.8410	72.1920
 0.8420	72.1320
 0.8430	72.0790
 0.8440	72.0720
 0.8450	72.0880
 0.8460	72.0970
 0.8470	72.0930
 0.8480	72.1020
 0.8490	72.0700
 0.8500	71.9700
 0.8510	71.9750
 0.8520	72.0220
 0.8530	72.0400
 0.8540	71.9810
 0.8550	71.9560
 0.8560	71.9470
 0.8570	71.9370
 0.8580	71.9220
 0.8590	71.9430
 0.8600	71.9410
 0.8610	71.9010
 0.8620	71.9080
 0.8630	71.9330
 0.8640	71.9450
 0.8650	71.9210
 0.8660	71.8620
 0.8670	71.8310
 0.8680	71.8230
 0.8690	71.8060
 0.8700	71.7520
 0.8710	71.7260
 0.8720	71.7360
 0.8730	71.7460
 0.8740	71.7010
 0.8750	71.6310
 0.8760	71.5790
 0.8770	71.5810
 0.8780	71.5540
 0.8790	71.4930
 0.8800	71.4200
 0.8810	71.3760
 0.8820	71.3650
 0.8830	71.3290
 0.8840	71.2470
 0.8850	71.2240
 0.8860	71.1380
 0.8870	71.0550
 0.8880	71.0480
 0.8890	71.0320
 0.8900	70.9750
 0.8910	70.9190
 0.8920	70.9210
 0.8930	70.9350
 0.8940	70.8910
 0.8950	70.8250
 0.8960	70.8170
 0.8970	70.7020
 0.8980	70.5730
 0.8990	70.5270
 0.9000	70.6100
 0.9010	70.5850
 0.9020	70.4880
 0.9030	70.3770
 0.9040	70.2890
 0.9050	70.3060
 0.9060	70.3160
 0.9070	70.2410
 0.9080	70.1500
 0.9090	70.0550
 0.9100	69.9960
 0.9110	69.9710
 0.9120	69.8510
 0.9130	69.7260
 0.9140	69.6010
 0.9150	69.4670
 0.9160	69.3540
 0.9170	69.2210
 0.9180	69.1260
 0.9190	69.1020
 0.9200	68.8720
 0.9210	68.7170
 0.9220	68.6090
 0.9230	68.3640
 0.9240	68.1340
 0.9250	67.8420
 0.9260	67.5560
 0.9270	67.4030
 0.9280	67.0890
 0.9290	66.8020
 0.9300	66.5770
 0.9310	66.2640
 0.9320	65.8850
 0.9330	65.5150
 0.9340	65.2020
 0.9350	64.9440
 0.9360	64.5740
 0.9370	64.2070
 0.9380	63.8740
 0.9390	63.4310
 0.9400	63.0510
 0.9410	62.6990
 0.9420	62.3070
 0.9430	61.8350
 0.9440	61.3780
 0.9450	60.9860
 0.9460	60.6250
 0.9470	60.1290
 0.9480	59.4960
 0.9490	58.9090
 0.9500	58.4610
 0.9510	57.9160
 0.9520	57.3280
 0.9530	56.7020
 0.9540	56.0770
 0.9550	55.6090
 0.9560	55.1120
 0.9570	54.6330
 0.9580	54.2640
 0.9590	53.9790
 0.9600	53.6450
 0.9610	53.3100
 0.9620	53.0690
 0.9630	52.9120
 0.9640	52.6570
 0.9650	52.4220
 0.9660	52.3680
 0.9670	52.2650
 0.9680	52.2590
 0.9690	52.1860
 0.9700	51.8880
 0.9710	51.7870
 0.9720	51.8470
 0.9730	51.8810
 0.9740	51.7370
 0.9750	51.6950
 0.9760	51.7500
 0.9770	51.7720
 0.9780	51.6510
 0.9790	51.6280
 0.9800	51.7960
 0.9810	51.9380
 0.9820	51.7980
 0.9830	51.6770
 0.9840	51.7910
 0.9850	52.0060
 0.9860	52.0750
 0.9870	52.1500
 0.9880	52.1810
 0.9890	52.2330
 0.9900	52.3870
 0.9910	52.5170
 0.9920	52.5630
 0.9930	52.6020
 0.9940	52.7490
 0.9950	52.9550
 0.9960	53.1020
 0.9970	53.3310
 0.9980	53.7350
 0.9990	53.6470
 1.0000	53.6760
 1.0010	53.2940
 1.0020	53.4420
 1.0030	53.5570
 1.0040	53.6910
 1.0050	53.8400
 1.0060	54.0420
 1.0070	54.2500
 1.0080	54.4350
 1.0090	54.6370
 1.0100	54.8300
 1.0110	54.9600
 1.0120	55.1650
 1.0130	55.4200
 1.0140	55.6560
 1.0150	55.8870
 1.0160	56.1950
 1.0170	56.4520
 1.0180	56.6420
 1.0190	56.8800
 1.0200	57.1130
 1.0210	57.3410
 1.0220	57.5920
 1.0230	57.7890
 1.0240	57.9100
 1.0250	58.1250
 1.0260	58.3540
 1.0270	58.5860
 1.0280	58.8930
 1.0290	59.1360
 1.0300	59.3550
 1.0310	59.5690
 1.0320	59.7510
 1.0330	59.9380
 1.0340	60.2170
 1.0350	60.3880
 1.0360	60.5310
 1.0370	60.7320
 1.0380	60.9330
 1.0390	61.0940
 1.0400	61.2950
 1.0410	61.5770
 1.0420	61.7910
 1.0430	61.9740
 1.0440	62.1560
 1.0450	62.3290
 1.0460	62.4940
 1.0470	62.6280
 1.0480	62.7770
 1.0490	62.9620
 1.0500	63.1060
 1.0510	63.1980
 1.0520	63.3450
 1.0530	63.4930
 1.0540	63.6430
 1.0550	63.7520
 1.0560	63.8790
 1.0570	63.9810
 1.0580	64.0100
 1.0590	64.0950
 1.0600	64.2470
 1.0610	64.3220
 1.0620	64.3480
 1.0630	64.4080
 1.0640	64.4270
 1.0650	64.4870
 1.0660	64.6290
 1.0670	64.7100
 1.0680	64.7730
 1.0690	64.8300
 1.0700	64.8600
 1.0710	64.8500
 1.0720	64.8470
 1.0730	64.8480
 1.0740	64.8150
 1.0750	64.7390
 1.0760	64.7030
 1.0770	64.6700
 1.0780	64.6310
 1.0790	64.6260
 1.0800	64.5870
 1.0810	64.5070
 1.0820	64.4490
 1.0830	64.4340
 1.0840	64.3520
 1.0850	64.1970
 1.0860	64.1010
 1.0870	64.0090
 1.0880	63.8890
 1.0890	63.7930
 1.0900	63.7790
 1.0910	63.6540
 1.0920	63.4510
 1.0930	63.2970
 1.0940	63.1080
 1.0950	62.9640
 1.0960	62.8690
 1.0970	62.7480
 1.0980	62.6440
 1.0990	62.5150
 1.1000	62.3740
 1.1010	62.2200
 1.1020	62.0420
 1.1030	61.8620
 1.1040	61.7000
 1.1050	61.5370
 1.1060	61.3840
 1.1070	61.2550
 1.1080	61.0990
 1.1090	60.9380
 1.1100	60.7730
 1.1110	60.5870
 1.1120	60.4280
 1.1130	60.3130
 1.1140	60.1310
 1.1150	59.9380
 1.1160	59.7240
 1.1170	59.4460
 1.1180	59.1880
 1.1190	58.9590
 1.1200	58.6850
 1.1210	58.3640
 1.1220	58.0610
 1.1230	57.7150
 1.1240	57.3510
 1.1250	56.9530
 1.1260	56.5490
 1.1270	56.0870
 1.1280	55.5740
 1.1290	55.0430
 1.1300	54.5130
 1.1310	53.8890
 1.1320	53.1810
 1.1330	52.4980
 1.1340	51.7660
 1.1350	51.0240
 1.1360	50.2930
 1.1370	49.5420
 1.1380	48.7140
 1.1390	47.9160
 1.1400	47.1320
 1.1410	46.3530
 1.1420	45.6300
 1.1430	44.8960
 1.1440	44.1960
 1.1450	43.5110
 1.1460	42.8760
 1.1470	42.2590
 1.1480	41.7030
 1.1490	41.2030
 1.1500	40.7160
 1.1510	40.2650
 1.1520	39.8440
 1.1530	39.4350
 1.1540	39.0850
 1.1550	38.7820
 1.1560	38.5050
 1.1570	38.2820
 1.1580	38.0860
 1.1590	37.9080
 1.1600	37.7570
 1.1610	37.6020
 1.1620	37.4710
 1.1630	37.3410
 1.1640	37.2200
 1.1650	37.1190
 1.1660	37.0360
 1.1670	36.9520
 1.1680	36.8870
 1.1690	36.8160
 1.1700	36.7390
 1.1710	36.6690
 1.1720	36.6170
 1.1730	36.5470
 1.1740	36.4630
 1.1750	36.3980
 1.1760	36.3310
 1.1770	36.2600
 1.1780	36.2100
 1.1790	36.1640
 1.1800	36.1160
 1.1810	36.0680
 1.1820	36.0100
 1.1830	35.9630
 1.1840	35.9250
 1.1850	35.8650
 1.1860	35.7970
 1.1870	35.7370
 1.1880	35.6790
 1.1890	35.6150
 1.1900	35.5600
 1.1910	35.5130
 1.1920	35.4710
 1.1930	35.4300
 1.1940	35.3930
 1.1950	35.3680
 1.1960	35.3390
 1.1970	35.3110
 1.1980	35.3100
 1.1990	35.3110
 1.2000	35.3110
 1.2010	35.3220
 1.2020	35.3060
 1.2030	35.2920
 1.2040	35.2910
 1.2050	35.2880
 1.2060	35.3110
 1.2070	35.3310
 1.2080	35.3530
 1.2090	35.3840
 1.2100	35.4070
 1.2110	35.4420
 1.2120	35.4930
 1.2130	35.5380
 1.2140	35.5760
 1.2150	35.6340
 1.2160	35.6990
 1.2170	35.7770
 1.2180	35.8510
 1.2190	35.9340
 1.2200	36.0160
 1.2210	36.0730
 1.2220	36.1410
 1.2230	36.2180
 1.2240	36.2730
 1.2250	36.3490
 1.2260	36.4410
 1.2270	36.5180
 1.2280	36.6010
 1.2290	36.6770
 1.2300	36.7380
 1.2310	36.8010
 1.2320	36.8690
 1.2330	36.9390
 1.2340	37.0050
 1.2350	37.0660
 1.2360	37.1360
 1.2370	37.2050
 1.2380	37.2820
 1.2390	37.3590
 1.2400	37.4410
 1.2410	37.5190
 1.2420	37.5740
 1.2430	37.6310
 1.2440	37.6830
 1.2450	37.7290
 1.2460	37.7740
 1.2470	37.8210
 1.2480	37.8710
 1.2490	37.9160
 1.2500	37.9830
 1.2510	38.0540
 1.2520	38.1060
 1.2530	38.1520
 1.2540	38.1900
 1.2550	38.2350
 1.2560	38.2800
 1.2570	38.3210
 1.2580	38.3610
 1.2590	38.3970
 1.2600	38.4270
 1.2610	38.4510
 1.2620	38.4740
 1.2630	38.4830
 1.2640	38.4870
 1.2650	38.4740
 1.2660	38.4730
 1.2670	38.4780
 1.2680	38.4750
 1.2690	38.4830
 1.2700	38.4770
 1.2710	38.4500
 1.2720	38.4070
 1.2730	38.3600
 1.2740	38.3120
 1.2750	38.2630
 1.2760	38.2280
 1.2770	38.1740
 1.2780	38.1170
 1.2790	38.0650
 1.2800	38.0090
 1.2810	37.9610
 1.2820	37.8930
 1.2830	37.8090
 1.2840	37.7340
 1.2850	37.6400
 1.2860	37.5500
 1.2870	37.4550
 1.2880	37.3680
 1.2890	37.2430
 1.2900	37.1240
 1.2910	37.0050
 1.2920	36.8820
 1.2930	36.7630
 1.2940	36.6400
 1.2950	36.5000
 1.2960	36.3240
 1.2970	36.1670
 1.2980	36.0140
 1.2990	35.8290
 1.3000	35.6620
 1.3010	35.4810
 1.3020	35.2890
 1.3030	35.1230
 1.3040	34.9470
 1.3050	34.7610
 1.3060	34.5640
 1.3070	34.3400
 1.3080	34.1200
 1.3090	33.9080
 1.3100	33.6880
 1.3110	33.4580
 1.3120	33.2270
 1.3130	32.9770
 1.3140	32.7170
 1.3150	32.4460
 1.3160	32.1780
 1.3170	31.8980
 1.3180	31.6220
 1.3190	31.3490
 1.3200	31.0730
 1.3210	30.8050
 1.3220	30.5260
 1.3230	30.2430
 1.3240	29.9600
 1.3250	29.6740
 1.3260	29.3800
 1.3270	29.0910
 1.3280	28.8010
 1.3290	28.4970
 1.3300	28.2030
 1.3310	27.9180
 1.3320	27.6330
 1.3330	27.3520
 1.3340	27.0830
 1.3350	26.8090
 1.3360	26.5390
 1.3370	26.2810
 1.3380	26.0140
 1.3390	25.7560
 1.3400	25.5050
 1.3410	25.2570
 1.3420	25.0280
 1.3430	24.8050
 1.3440	24.5790
 1.3450	24.3560
 1.3460	24.1360
 1.3470	23.9160
 1.3480	23.6850
 1.3490	23.4820
 1.3500	23.2940
 1.3510	23.1150
 1.3520	22.9340
 1.3530	22.7680
 1.3540	22.5990
 1.3550	22.4110
 1.3560	22.2360
 1.3570	22.0690
 1.3580	21.8850
 1.3590	21.7040
 1.3600	21.5210
 1.3610	21.3300
 1.3620	21.1290
 1.3630	20.9190
 1.3640	20.7090
 1.3650	20.4900
 1.3660	20.2680
 1.3670	20.0400
 1.3680	19.7870
 1.3690	19.5270
 1.3700	19.2640
 1.3710	18.9880
 1.3720	18.7040
 1.3730	18.4050
 1.3740	18.0860
 1.3750	17.7530
 1.3760	17.4060
 1.3770	17.0440
 1.3780	16.6610
 1.3790	16.2710
 1.3800	15.8710
 1.3810	15.4720
 1.3820	15.0670
 1.3830	14.6580
 1.3840	14.2430
 1.3850	13.8200
 1.3860	13.4000
 1.3870	12.9700
 1.3880	12.5650
 1.3890	12.1700
 1.3900	11.7850
 1.3910	11.4180
 1.3920	11.0570
 1.3930	10.7040
 1.3940	10.3660
 1.3950	10.0460
 1.3960	 9.7490
 1.3970	 9.4750
 1.3980	 9.2230
 1.3990	 8.9920
 1.4000	 8.7720
 1.4010	 8.5570
 1.4020	 8.3540
 1.4030	 8.1630
 1.4040	 7.9820
 1.4050	 7.8200
 1.4060	 7.6720
 1.4070	 7.5340
 1.4080	 7.4100
 1.4090	 7.2960
 1.4100	 7.1890
 1.4110	 7.0890
 1.4120	 6.9930
 1.4130	 6.9050
 1.4140	 6.8310
 1.4150	 6.7600
 1.4160	 6.6990
 1.4170	 6.6500
 1.4180	 6.5960
 1.4190	 6.5460
 1.4200	 6.4990
 1.4210	 6.4470
 1.4220	 6.4010
 1.4230	 6.3580
 1.4240	 6.3160
 1.4250	 6.2790
 1.4260	 6.2450
 1.4270	 6.2160
 1.4280	 6.1910
 1.4290	 6.1670
 1.4300	 6.1500
 1.4310	 6.1320
 1.4320	 6.1150
 1.4330	 6.0960
 1.4340	 6.0690
 1.4350	 6.0490
 1.4360	 6.0290
 1.4370	 6.0180
 1.4380	 6.0050
 1.4390	 5.9980
 1.4400	 5.9840
 1.4410	 5.9710
 1.4420	 5.9630
 1.4430	 5.9550
 1.4440	 5.9540
 1.4450	 5.9550
 1.4460	 5.9510
 1.4470	 5.9560
 1.4480	 5.9580
 1.4490	 5.9480
 1.4500	 5.9480
 1.4510	 5.9430
 1.4520	 5.9370
 1.4530	 5.9370
 1.4540	 5.9330
 1.4550	 5.9390
 1.4560	 5.9420
 1.4570	 5.9440
 1.4580	 5.9540
 1.4590	 5.9530
 1.4600	 5.9470
 1.4610	 5.9550
 1.4620	 5.9690
 1.4630	 5.9830
 1.4640	 6.0020
 1.4650	 6.0210
 1.4660	 6.0320
 1.4670	 6.0360
 1.4680	 6.0510
 1.4690	 6.0710
 1.4700	 6.0830
 1.4710	 6.1080
 1.4720	 6.1370
 1.4730	 6.1570
 1.4740	 6.1820
 1.4750	 6.2040
 1.4760	 6.2220
 1.4770	 6.2410
 1.4780	 6.2660
 1.4790	 6.2990
 1.4800	 6.3320
 1.4810	 6.3700
 1.4820	 6.4050
 1.4830	 6.4350
 1.4840	 6.4640
 1.4850	 6.4950
 1.4860	 6.5290
 1.4870	 6.5690
 1.4880	 6.6100
 1.4890	 6.6430
 1.4900	 6.6810
 1.4910	 6.7150
 1.4920	 6.7550
 1.4930	 6.8020
 1.4940	 6.8430
 1.4950	 6.8830
 1.4960	 6.9240
 1.4970	 6.9660
 1.4980	 7.0040
 1.4990	 7.0440
 1.5000	 7.0790
 1.5010	 7.1060
 1.5020	 7.1440
 1.5030	 7.1830
 1.5040	 7.2300
 1.5050	 7.2840
 1.5060	 7.3380
 1.5070	 7.4030
 1.5080	 7.4570
 1.5090	 7.5060
 1.5100	 7.5580
 1.5110	 7.6000
 1.5120	 7.6420
 1.5130	 7.6900
 1.5140	 7.7380
 1.5150	 7.7910
 1.5160	 7.8390
 1.5170	 7.8850
 1.5180	 7.9310
 1.5190	 7.9730
 1.5200	 8.0240
 1.5210	 8.0790
 1.5220	 8.1350
 1.5230	 8.1940
 1.5240	 8.2460
 1.5250	 8.2980
 1.5260	 8.3540
 1.5270	 8.4130
 1.5280	 8.4760
 1.5290	 8.5410
 1.5300	 8.6010
 1.5310	 8.6620
 1.5320	 8.7150
 1.5330	 8.7670
 1.5340	 8.8200
 1.5350	 8.8700
 1.5360	 8.9360
 1.5370	 9.0000
 1.5380	 9.0630
 1.5390	 9.1270
 1.5400	 9.1770
 1.5410	 9.2300
 1.5420	 9.2830
 1.5430	 9.3310
 1.5440	 9.3890
 1.5450	 9.4440
 1.5460	 9.4980
 1.5470	 9.5630
 1.5480	 9.6190
 1.5490	 9.6710
 1.5500	 9.7360
 1.5510	 9.8000
 1.5520	 9.8670
 1.5530	 9.9390
 1.5540	 9.9970
 1.5550	10.0510
 1.5560	10.1100
 1.5570	10.1700
 1.5580	10.2290
 1.5590	10.2870
 1.5600	10.3460
 1.5610	10.4040
 1.5620	10.4670
 1.5630	10.5320
 1.5640	10.5910
 1.5650	10.6480
 1.5660	10.6970
 1.5670	10.7480
 1.5680	10.7960
 1.5690	10.8460
 1.5700	10.9120
 1.5710	10.9770
 1.5720	11.0440
 1.5730	11.1100
 1.5740	11.1580
 1.5750	11.2050
 1.5760	11.2590
 1.5770	11.3040
 1.5780	11.3610
 1.5790	11.4250
 1.5800	11.4770
 1.5810	11.5400
 1.5820	11.5920
 1.5830	11.6350
 1.5840	11.6910
 1.5850	11.7390
 1.5860	11.7930
 1.5870	11.8540
 1.5880	11.9080
 1.5890	11.9600
 1.5900	12.0050
 1.5910	12.0590
 1.5920	12.1200
 1.5930	12.1720
 1.5940	12.2340
 1.5950	12.2780
 1.5960	12.2980
 1.5970	12.3320
 1.5980	12.3730
 1.5990	12.4210
 1.6000	12.4820
 1.6010	12.5400
 1.6020	12.5890
 1.6030	12.6430
 1.6040	12.6980
 1.6050	12.7530
 1.6060	12.8130
 1.6070	12.8640
 1.6080	12.9100
 1.6090	12.9470
 1.6100	12.9830
 1.6110	13.0280
 1.6120	13.0560
 1.6130	13.0910
 1.6140	13.1340
 1.6150	13.1640
 1.6160	13.2110
 1.6170	13.2580
 1.6180	13.3000
 1.6190	13.3430
 1.6200	13.3790
 1.6210	13.4090
 1.6220	13.4360
 1.6230	13.4750
 1.6240	13.5210
 1.6250	13.5700
 1.6260	13.6150
 1.6270	13.6430
 1.6280	13.6710
 1.6290	13.7050
 1.6300	13.7420
 1.6310	13.7830
 1.6320	13.8330
 1.6330	13.8730
 1.6340	13.9080
 1.6350	13.9370
 1.6360	13.9510
 1.6370	13.9740
 1.6380	13.9970
 1.6390	14.0270
 1.6400	14.0640
 1.6410	14.0980
 1.6420	14.1400
 1.6430	14.1720
 1.6440	14.1980
 1.6450	14.2250
 1.6460	14.2440
 1.6470	14.2600
 1.6480	14.2750
 1.6490	14.2900
 1.6500	14.3090
 1.6510	14.3330
 1.6520	14.3590
 1.6530	14.3810
 1.6540	14.3960
 1.6550	14.4150
 1.6560	14.4240
 1.6570	14.4350
 1.6580	14.4530
 1.6590	14.4520
 1.6600	14.4630
 1.6610	14.4820
 1.6620	14.4860
 1.6630	14.5130
 1.6640	14.5450
 1.6650	14.5570
 1.6660	14.5830
 1.6670	14.5880
 1.6680	14.5770
 1.6690	14.5730
 1.6700	14.5570
 1.6710	14.5540
 1.6720	14.5510
 1.6730	14.5500
 1.6740	14.5580
 1.6750	14.5510
 1.6760	14.5510
 1.6770	14.5490
 1.6780	14.5430
 1.6790	14.5520
 1.6800	14.5480
 1.6810	14.5260
 1.6820	14.5060
 1.6830	14.4840
 1.6840	14.4670
 1.6850	14.4720
 1.6860	14.4660
 1.6870	14.4370
 1.6880	14.4110
 1.6890	14.3850
 1.6900	14.3560
 1.6910	14.3340
 1.6920	14.3020
 1.6930	14.2580
 1.6940	14.2110
 1.6950	14.1510
 1.6960	14.1140
 1.6970	14.0860
 1.6980	14.0540
 1.6990	14.0390
 1.7000	14.0060
 1.7010	13.9560
 1.7020	13.9120
 1.7030	13.8710
 1.7040	13.8190
 1.7050	13.7610
 1.7060	13.7020
 1.7070	13.6290
 1.7080	13.5730
 1.7090	13.5210
 1.7100	13.4750
 1.7110	13.4460
 1.7120	13.4080
 1.7130	13.3490
 1.7140	13.3020
 1.7150	13.2460
 1.7160	13.1760
 1.7170	13.1280
 1.7180	13.0800
 1.7190	13.0230
 1.7200	12.9770
 1.7210	12.9260
 1.7220	12.8530
 1.7230	12.7900
 1.7240	12.7320
 1.7250	12.6750
 1.7260	12.6270
 1.7270	12.5810
 1.7280	12.5350
 1.7290	12.4930
 1.7300	12.4450
 1.7310	12.4110
 1.7320	12.3860
 1.7330	12.3670
 1.7340	12.3660
 1.7350	12.3580
 1.7360	12.3490
 1.7370	12.3390
 1.7380	12.3360
 1.7390	12.3190
 1.7400	12.2960
 1.7410	12.2690
 1.7420	12.2310
 1.7430	12.1950
 1.7440	12.1590
 1.7450	12.1210
 1.7460	12.0810
 1.7470	12.0380
 1.7480	11.9920
 1.7490	11.9490
 1.7500	11.9080
 1.7510	11.8600
 1.7520	11.8130
 1.7530	11.7540
 1.7540	11.6800
 1.7550	11.6100
 1.7560	11.5600
 1.7570	11.5060
 1.7580	11.4500
 1.7590	11.4000
 1.7600	11.3420
 1.7610	11.2880
 1.7620	11.2440
 1.7630	11.2070
 1.7640	11.1720
 1.7650	11.1540
 1.7660	11.1250
 1.7670	11.0840
 1.7680	11.0560
 1.7690	11.0270
 1.7700	11.0060
 1.7710	11.0010
 1.7720	10.9870
 1.7730	10.9750
 1.7740	10.9550
 1.7750	10.9250
 1.7760	10.9030
 1.7770	10.8810
 1.7780	10.8600
 1.7790	10.8400
 1.7800	10.8290
 1.7810	10.8180
 1.7820	10.8150
 1.7830	10.8280
 1.7840	10.8220
 1.7850	10.8140
 1.7860	10.7970
 1.7870	10.7660
 1.7880	10.7520
 1.7890	10.7370
 1.7900	10.7520
 1.7910	10.7530
 1.7920	10.7620
 1.7930	10.7560
 1.7940	10.7230
 1.7950	10.7110
 1.7960	10.6990
 1.7970	10.6950
 1.7980	10.7110
 1.7990	10.7210
 1.8000	10.7240
 1.8010	10.7410
 1.8020	10.7790
 1.8030	10.7900
 1.8040	10.7970
 1.8050	10.8010
 1.8060	10.7850
 1.8070	10.7800
 1.8080	10.7840
 1.8090	10.7860
 1.8100	10.7780
 1.8110	10.8020
 1.8120	10.8360
 1.8130	10.8340
 1.8140	10.8390
 1.8150	10.8330
 1.8160	10.7970
 1.8170	10.7830
 1.8180	10.7810
 1.8190	10.7750
 1.8200	10.7790
 1.8210	10.8190
 1.8220	10.8190
 1.8230	10.7890
 1.8240	10.7710
 1.8250	10.7150
 1.8260	10.7060
 1.8270	10.7400
 1.8280	10.7590
 1.8290	10.8110
 1.8300	10.8100
 1.8310	10.5740
 1.8320	10.5480
 1.8330	10.5020
 1.8340	10.4460
 1.8350	10.4210
 1.8360	10.3780
 1.8370	10.3340
 1.8380	10.2740
 1.8390	10.2230
 1.8400	10.1600
 1.8410	10.1320
 1.8420	10.1210
 1.8430	10.1230
 1.8440	10.1470
 1.8450	10.1030
 1.8460	 9.9910
 1.8470	 9.8750
 1.8480	 9.7450
 1.8490	 9.6220
 1.8500	 9.5260
 1.8510	 9.4700
 1.8520	 9.4120
 1.8530	 9.3200
 1.8540	 9.2290
 1.8550	 9.1090
 1.8560	 8.9730
 1.8570	 8.8780
 1.8580	 8.7970
 1.8590	 8.6910
 1.8600	 8.5880
 1.8610	 8.4890
 1.8620	 8.3490
 1.8630	 8.1770
 1.8640	 8.0510
 1.8650	 7.9070
 1.8660	 7.7630
 1.8670	 7.6310
 1.8680	 7.4760
 1.8690	 7.3200
 1.8700	 7.1650
 1.8710	 7.0000
 1.8720	 6.8540
 1.8730	 6.6970
 1.8740	 6.5340
 1.8750	 6.3740
 1.8760	 6.2010
 1.8770	 6.0680
 1.8780	 5.9640
 1.8790	 5.8580
 1.8800	 5.7460
 1.8810	 5.6420
 1.8820	 5.5300
 1.8830	 5.3850
 1.8840	 5.2350
 1.8850	 5.1160
 1.8860	 5.0010
 1.8870	 4.9110
 1.8880	 4.8400
 1.8890	 4.7790
 1.8900	 4.7410
 1.8910	 4.6900
 1.8920	 4.6400
 1.8930	 4.5940
 1.8940	 4.5700
 1.8950	 4.5070
 1.8960	 4.4310
 1.8970	 4.4030
 1.8980	 4.3650
 1.8990	 4.3200
 1.9000	 4.2800
 1.9010	 4.2540
 1.9020	 4.2300
 1.9030	 4.1970
 1.9040	 4.1740
 1.9050	 4.1940
 1.9060	 4.2000
 1.9070	 4.1870
 1.9080	 4.1850
 1.9090	 4.1650
 1.9100	 4.1440
 1.9110	 4.1270
 1.9120	 4.1160
 1.9130	 4.0990
 1.9140	 4.0830
 1.9150	 4.0550
 1.9160	 4.0290
 1.9170	 4.0180
 1.9180	 4.0100
 1.9190	 4.0140
 1.9200	 4.0450
 1.9210	 4.0900
 1.9220	 4.0910
 1.9230	 4.0680
 1.9240	 4.0560
 1.9250	 4.0260
 1.9260	 3.9700
 1.9270	 3.9870
 1.9280	 4.0090
 1.9290	 4.0030
 1.9300	 4.0220
 1.9310	 4.0190
 1.9320	 4.0080
 1.9330	 4.0140
 1.9340	 4.0370
 1.9350	 4.0540
 1.9360	 4.0840
 1.9370	 4.1000
 1.9380	 4.1210
 1.9390	 4.1140
 1.9400	 4.1030
 1.9410	 4.0480
 1.9420	 4.0320
 1.9430	 4.0520
 1.9440	 4.0460
 1.9450	 4.0520
 1.9460	 4.0570
 1.9470	 4.0420
 1.9480	 4.0280
 1.9490	 4.0190
 1.9500	 4.0250
 1.9510	 4.0040
 1.9520	 3.9940
 1.9530	 4.0090
 1.9540	 4.0110
 1.9550	 4.0240
 1.9560	 4.0460
 1.9570	 4.0710
 1.9580	 4.1220
 1.9590	 4.1360
 1.9600	 4.1250
 1.9610	 4.1260
 1.9620	 4.1230
 1.9630	 4.0860
 1.9640	 4.0880
 1.9650	 4.1170
 1.9660	 4.1000
 1.9670	 4.0930
 1.9680	 4.0960
 1.9690	 4.0890
 1.9700	 4.1020
 1.9710	 4.1490
 1.9720	 4.1680
 1.9730	 4.1770
 1.9740	 4.1900
 1.9750	 4.2080
 1.9760	 4.2230
 1.9770	 4.2170
 1.9780	 4.2080
 1.9790	 4.2160
 1.9800	 4.2150
 1.9810	 4.2180
 1.9820	 4.2630
 1.9830	 4.2640
 1.9840	 4.2110
 1.9850	 4.2070
 1.9860	 4.2150
 1.9870	 4.2170
 1.9880	 4.2590
 1.9890	 4.2910
 1.9900	 4.3030
 1.9910	 4.2960
 1.9920	 4.2950
 1.9930	 4.2890
 1.9940	 4.2740
 1.9950	 4.2440
 1.9960	 4.2390
 1.9970	 4.2210
 1.9980	 4.2320
 1.9990	 4.2720
 2.0000	 4.3230
 2.0010	 4.3650
 2.0020	 4.3840
 2.0030	 4.4070
 2.0040	 4.4050
 2.0050	 4.4180
 2.0060	 4.4370
 2.0070	 4.4510
 2.0080	 4.4640
 2.0090	 4.4730
 2.0100	 4.4830
 2.0110	 4.4890
 2.0120	 4.4780
 2.0130	 4.4930
 2.0140	 4.5190
 2.0150	 4.5030
 2.0160	 4.4940
 2.0170	 4.5070
 2.0180	 4.5220
 2.0190	 4.5440
 2.0200	 4.5550
 2.0210	 4.5680
 2.0220	 4.5800
 2.0230	 4.5860
 2.0240	 4.5940
 2.0250	 4.6080
 2.0260	 4.6210
 2.0270	 4.6320
 2.0280	 4.6300
 2.0290	 4.6650
 2.0300	 4.6880
 2.0310	 4.6950
 2.0320	 4.7070
 2.0330	 4.6940
 2.0340	 4.6370
 2.0350	 4.6160
 2.0360	 4.5840
 2.0370	 4.5830
 2.0380	 4.6170
 2.0390	 4.6460
 2.0400	 4.7000
 2.0410	 4.7440
 2.0420	 4.7990
 2.0430	 4.8160
 2.0440	 4.8480
 2.0450	 4.8820
 2.0460	 4.9030
 2.0470	 4.9240
 2.0480	 4.9320
 2.0490	 4.9160
 2.0500	 4.9160
 2.0510	 4.9050
 2.0520	 4.9150
 2.0530	 4.9510
 2.0540	 4.9710
 2.0550	 4.9910
 2.0560	 5.0050
 2.0570	 5.0250
 2.0580	 5.0520
 2.0590	 5.0740
 2.0600	 5.1200
 2.0610	 5.1260
 2.0620	 5.0940
 2.0630	 5.0950
 2.0640	 5.0900
 2.0650	 5.1020
 2.0660	 5.1620
 2.0670	 5.1710
 2.0680	 5.1420
 2.0690	 5.1360
 2.0700	 5.1010
 2.0710	 5.0990
 2.0720	 5.1480
 2.0730	 5.1740
 2.0740	 5.1880
 2.0750	 5.2000
 2.0760	 5.2080
 2.0770	 5.1930
 2.0780	 5.1990
 2.0790	 5.2110
 2.0800	 5.2300
 2.0810	 5.2600
 2.0820	 5.2800
 2.0830	 5.3050
 2.0840	 5.3280
 2.0850	 5.3420
 2.0860	 5.3580
 2.0870	 5.3690
 2.0880	 5.3950
 2.0890	 5.4190
 2.0900	 5.4480
 2.0910	 5.4530
 2.0920	 5.4430
 2.0930	 5.4570
 2.0940	 5.4620
 2.0950	 5.4760
 2.0960	 5.5220
 2.0970	 5.5400
 2.0980	 5.5410
 2.0990	 5.5400
 2.1000	 5.5330
 2.1010	 5.5270
 2.1020	 5.4940
 2.1030	 5.4860
 2.1040	 5.4860
 2.1050	 5.5010
 2.1060	 5.5210
 2.1070	 5.5640
 2.1080	 5.5920
 2.1090	 5.6160
 2.1100	 5.6430
 2.1110	 5.6660
 2.1120	 5.6960
 2.1130	 5.7430
 2.1140	 5.7640
 2.1150	 5.7740
 2.1160	 5.7850
 2.1170	 5.7620
 2.1180	 5.7740
 2.1190	 5.8200
 2.1200	 5.8490
 2.1210	 5.8880
 2.1220	 5.9220
 2.1230	 5.9460
 2.1240	 5.9550
 2.1250	 5.9620
 2.1260	 5.9600
 2.1270	 5.9720
 2.1280	 5.9820
 2.1290	 5.9930
 2.1300	 6.0350
 2.1310	 6.0270
 2.1320	 5.9860
 2.1330	 5.9560
 2.1340	 5.8750
 2.1350	 5.8530
 2.1360	 5.8530
 2.1370	 5.8780
 2.1380	 5.9580
 2.1390	 6.0230
 2.1400	 6.1230
 2.1410	 6.1950
 2.1420	 6.2330
 2.1430	 6.2620
 2.1440	 6.2440
 2.1450	 6.1480
 2.1460	 6.1330
 2.1470	 6.1100
 2.1480	 6.1220
 2.1490	 6.2040
 2.1500	 6.2380
 2.1510	 6.2740
 2.1520	 6.2830
 2.1530	 6.2560
 2.1540	 6.2550
 2.1550	 6.2340
 2.1560	 6.2380
 2.1570	 6.2820
 2.1580	 6.3070
 2.1590	 6.3420
 2.1600	 6.3600
 2.1610	 6.3500
 2.1620	 6.3230
 2.1630	 6.3000
 2.1640	 6.2470
 2.1650	 6.2340
 2.1660	 6.2320
 2.1670	 6.2520
 2.1680	 6.3040
 2.1690	 6.3350
 2.1700	 6.3810
 2.1710	 6.4110
 2.1720	 6.4420
 2.1730	 6.4390
 2.1740	 6.4000
 2.1750	 6.3860
 2.1760	 6.3260
 2.1770	 6.3270
 2.1780	 6.3950
 2.1790	 6.4390
 2.1800	 6.5340
 2.1810	 6.5730
 2.1820	 6.5720
 2.1830	 6.5580
 2.1840	 6.5430
 2.1850	 6.4850
 2.1860	 6.4830
 2.1870	 6.5210
 2.1880	 6.5160
 2.1890	 6.5040
 2.1900	 6.5050
 2.1910	 6.4660
 2.1920	 6.4940
 2.1930	 6.6080
 2.1940	 6.6410
 2.1950	 6.6700
 2.1960	 6.6760
 2.1970	 6.5920
 2.1980	 6.5840
 2.1990	 6.6240
 2.2000	 6.6470
 2.2010	 6.7080
 2.2020	 6.7320
 2.2030	 6.7240
 2.2040	 6.7170
 2.2050	 6.6580
 2.2060	 6.6730
 2.2070	 6.6550
 2.2080	 6.6220
 2.2090	 6.6250
 2.2100	 6.6360
 2.2110	 6.6610
 2.2120	 6.7310
 2.2130	 6.7540
 2.2140	 6.7590
 2.2150	 6.7810
 2.2160	 6.8120
 2.2170	 6.8010
 2.2180	 6.7840
 2.2190	 6.7560
 2.2200	 6.6730
 2.2210	 6.6210
 2.2220	 6.5560
 2.2230	 6.5440
 2.2240	 6.5740
 2.2250	 6.5910
 2.2260	 6.6690
 2.2270	 6.7000
 2.2280	 6.6770
 2.2290	 6.6760
 2.2300	 6.6750
 2.2310	 6.6820
 2.2320	 6.6580
 2.2330	 6.6230
 2.2340	 6.5910
 2.2350	 6.5180
 2.2360	 6.5040
 2.2370	 6.5390
 2.2380	 6.5080
 2.2390	 6.4640
 2.2400	 6.4330
 2.2410	 6.3650
 2.2420	 6.3330
 2.2430	 6.3300
 2.2440	 6.3230
 2.2450	 6.3220
 2.2460	 6.3130
 2.2470	 6.3220
 2.2480	 6.3100
 2.2490	 6.2470
 2.2500	 6.2490
 2.2510	 6.3060
 2.2520	 6.3100
 2.2530	 6.3360
 2.2540	 6.3320
 2.2550	 6.2500
 2.2560	 6.2150
 2.2570	 6.2030
 2.2580	 6.1870
 2.2590	 6.1770
 2.2600	 6.1800
 2.2610	 6.2080
 2.2620	 6.2090
 2.2630	 6.1830
 2.2640	 6.1740
 2.2650	 6.1620
 2.2660	 6.1360
 2.2670	 6.1240
 2.2680	 6.1520
 2.2690	 6.1160
 2.2700	 6.0440
 2.2710	 5.9850
 2.2720	 5.9040
 2.2730	 5.8350
 2.2740	 5.7640
 2.2750	 5.7140
 2.2760	 5.6590
 2.2770	 5.6310
 2.2780	 5.6450
 2.2790	 5.6200
 2.2800	 5.5700
 2.2810	 5.5710
 2.2820	 5.6030
 2.2830	 5.6000
 2.2840	 5.6380
 2.2850	 5.6180
 2.2860	 5.5050
 2.2870	 5.4530
 2.2880	 5.4080
 2.2890	 5.3820
 2.2900	 5.4010
 2.2910	 5.4020
 2.2920	 5.4190
 2.2930	 5.4060
 2.2940	 5.3390
 2.2950	 5.3270
 2.2960	 5.3320
 2.2970	 5.3260
 2.2980	 5.3650
 2.2990	 5.3870
 2.3000	 5.3550
 2.3010	 5.3410
 2.3020	 5.2820
 2.3030	 5.2390
 2.3040	 5.2040
 2.3050	 5.1780
 2.3060	 5.1720
 2.3070	 5.1650
 2.3080	 5.1250
 2.3090	 5.0680
 2.3100	 5.0340
 2.3110	 5.0090
 2.3120	 5.0290
 2.3130	 5.1020
 2.3140	 5.1250
 2.3150	 5.1810
 2.3160	 5.1710
 2.3170	 5.1020
 2.3180	 5.0880
 2.3190	 5.0440
 2.3200	 5.0530
 2.3210	 5.1120
 2.3220	 5.1240
 2.3230	 5.1530
 2.3240	 5.1590
 2.3250	 5.1220
 2.3260	 5.1310
 2.3270	 5.1690
 2.3280	 5.1820
 2.3290	 5.2160
 2.3300	 5.2120
 2.3310	 5.1390
 2.3320	 5.1320
 2.3330	 5.1440
 2.3340	 5.1510
 2.3350	 5.2300
 2.3360	 5.2090
 2.3370	 5.0950
 2.3380	 5.0550
 2.3390	 4.9780
 2.3400	 4.9830
 2.3410	 5.1380
 2.3420	 5.1410
 2.3430	 5.1000
 2.3440	 5.0490
 2.3450	 4.8290
 2.3460	 4.7780
 2.3470	 4.8270
 2.3480	 4.8590
 2.3490	 5.0460
 2.3500	 5.0930
 2.3510	 5.0480
 2.3520	 5.0090
 2.3530	 4.8950
 2.3540	 4.7850
 2.3550	 4.7150
 2.3560	 4.7670
 2.3570	 4.8430
 2.3580	 4.8630
 2.3590	 4.9420
 2.3600	 4.9080
 2.3610	 4.8490
 2.3620	 4.8520
 2.3630	 4.7250
 2.3640	 4.7030
 2.3650	 4.6520
 2.3660	 4.4770
 2.3670	 4.4330
 2.3680	 4.3880
 2.3690	 4.4680
 2.3700	 4.6680
 2.3710	 4.8510
 2.3720	 4.9610
 2.3730	 4.9020
 2.3740	 4.8520
 2.3750	 4.7890
 2.3760	 4.7620
 2.3770	 4.7800
 2.3780	 4.7990
 2.3790	 4.8570
 2.3800	 4.8220
 2.3810	 4.8710
 2.3820	 4.9110
 2.3830	 4.8740
 2.3840	 4.9020
 2.3850	 4.8880
 2.3860	 4.8400
 2.3870	 4.7830
 2.3880	 4.8170
 2.3890	 4.8130
 2.3900	 4.7960
 2.3910	 4.8360
 2.3920	 4.7540
 2.3930	 4.6680
 2.3940	 4.6060
 2.3950	 4.6030
 2.3960	 4.6580
 2.3970	 4.7180
 2.3980	 4.6890
 2.3990	 4.5420
 2.4000	 4.4010
 2.4010	 4.2520
 2.4020	 4.2280
 2.4030	 4.2220
 2.4040	 4.1880
 2.4050	 4.3410
 2.4060	 4.4220
 2.4070	 4.4100
 2.4080	 4.4890
 2.4090	 4.3880
 2.4100	 4.2370
 2.4110	 4.1690
 2.4120	 4.0800
 2.4130	 4.0950
 2.4140	 4.1580
 2.4150	 4.2770
 2.4160	 4.3410
 2.4170	 4.3210
 2.4180	 4.3050
 2.4190	 4.2620
 2.4200	 4.4090
 2.4210	 4.6900
 2.4220	 4.8290
 2.4230	 4.8990
 2.4240	 4.8400
 2.4250	 4.6440
 2.4260	 4.5410
 2.4270	 4.4730
 2.4280	 4.4120
 2.4290	 4.4000
 2.4300	 4.3290
 2.4310	 4.3140
 2.4320	 4.3580
 2.4330	 4.2880
 2.4340	 4.3610
 2.4350	 4.5310
 2.4360	 4.6330
 2.4370	 4.7480
 2.4380	 4.6840
 2.4390	 4.4940
 2.4400	 4.4360
 2.4410	 4.3500
 2.4420	 4.2250
 2.4430	 4.2620
 2.4440	 4.0220
 2.4450	 3.7680
 2.4460	 3.7380
 2.4470	 3.5190
 2.4480	 3.5400
 2.4490	 3.9210
 2.4500	 4.3960
 2.4510	 4.8950
 2.4520	 5.0400
 2.4530	 4.9120
 2.4540	 4.7080
 2.4550	 4.4400
 2.4560	 4.4290
 2.4570	 4.4440
 2.4580	 4.4300
 2.4590	 4.6000
 2.4600	 4.7320
 2.4610	 4.7870
 2.4620	 4.7300
 2.4630	 4.5590
 2.4640	 4.3520
 2.4650	 4.3020
 2.4660	 4.2510
 2.4670	 4.0710
 2.4680	 4.0030
 2.4690	 4.1260
 2.4700	 4.0520
 2.4710	 3.9060
 2.4720	 3.7100
 2.4730	 3.1770
 2.4740	 3.0670
 2.4750	 3.2370
 2.4760	 3.3900
 2.4770	 3.8590
 2.4780	 3.8530
 2.4790	 3.4770
 2.4800	 3.5510
 2.4810	 3.6780
 2.4820	 4.1310
 2.4830	 4.6530
 2.4840	 4.8320
 2.4850	 4.7610
 2.4860	 4.9440
 2.4870	 4.7640
 2.4880	 4.3040
 2.4890	 3.8400
 2.4900	 3.1270
 2.4910	 2.5820
 2.4920	 2.4110
 2.4930	 2.7590
 2.4940	 3.5400
 2.4950	 4.7510
 2.4960	 5.3610
 2.4970	 5.1950
 2.4980	 4.8530
 2.4990	 3.8970
 2.5000	 3.5790
