Name: Eucalyptus kartzoffiana
Type: vegetation
Class: Tree
Genus: Eucalyptus
Species: kartzoffiana
Sample No.: JPL221
Owner: JPL
Wavelength Range: TIR
Origin: 34.12439; -118.11369; WGS84
Collection Date: 10/3/2016
Description: Samples were collected at the Huntington Garden in San Marino California as part of a JPL Subcontract studying HyTES imagery. Samples were taken to JPL and processed within 48 hours of collection. The same leaves were processed in the Nicolet and then measured using the ASD.
Measurement: Hemispherical reflectance
First Column: X
Second Column: Y
X Units: Wavelength (micrometer)
Y Units: Reflectance (percentage)
First X Value: 2.501
Last X Value: 15.387
Number of X Values: 1737
Additional Information: vegetation.tree.eucalyptus.kartzoffiana.tir.jpl221.jpl.nicolet.ancillary.txt

 2.5010	 6.2960
 2.5030	 6.3490
 2.5040	 6.2710
 2.5050	 6.1130
 2.5060	 6.1500
 2.5070	 6.1820
 2.5090	 6.2070
 2.5100	 6.2100
 2.5110	 6.1980
 2.5120	 6.1700
 2.5140	 6.2110
 2.5150	 6.1790
 2.5160	 6.2220
 2.5170	 6.1820
 2.5180	 6.1220
 2.5200	 6.1430
 2.5210	 6.2200
 2.5220	 6.2640
 2.5230	 6.2960
 2.5250	 6.2510
 2.5260	 6.2020
 2.5270	 6.1810
 2.5280	 6.2370
 2.5300	 6.2520
 2.5310	 6.2600
 2.5320	 6.2000
 2.5330	 6.1860
 2.5340	 6.1930
 2.5360	 6.1470
 2.5370	 6.1500
 2.5380	 6.2690
 2.5390	 6.1270
 2.5410	 6.1160
 2.5420	 6.1850
 2.5430	 6.2040
 2.5440	 6.2620
 2.5460	 6.3330
 2.5470	 6.2760
 2.5480	 6.2460
 2.5490	 6.2430
 2.5510	 6.2990
 2.5520	 6.2740
 2.5530	 6.3010
 2.5540	 6.2870
 2.5560	 6.2290
 2.5570	 6.1860
 2.5580	 6.2600
 2.5590	 6.2350
 2.5610	 6.1790
 2.5620	 6.1650
 2.5630	 6.2090
 2.5650	 6.1490
 2.5660	 6.1960
 2.5670	 6.2260
 2.5680	 6.3010
 2.5700	 6.2830
 2.5710	 6.2990
 2.5720	 6.2970
 2.5730	 6.2740
 2.5750	 6.2430
 2.5760	 6.2490
 2.5770	 6.2170
 2.5790	 6.2420
 2.5800	 6.2530
 2.5810	 6.2680
 2.5820	 6.2340
 2.5840	 6.1680
 2.5850	 6.1190
 2.5860	 6.1740
 2.5880	 6.1240
 2.5890	 6.1290
 2.5900	 6.1900
 2.5910	 6.2080
 2.5930	 6.1480
 2.5940	 6.1760
 2.5950	 6.1550
 2.5970	 6.1820
 2.5980	 6.1970
 2.5990	 6.2550
 2.6010	 6.2310
 2.6020	 6.1630
 2.6030	 6.1020
 2.6040	 6.1150
 2.6060	 6.0640
 2.6070	 6.0900
 2.6080	 6.0870
 2.6100	 6.0540
 2.6110	 6.0640
 2.6120	 6.1300
 2.6140	 6.0720
 2.6150	 6.0780
 2.6160	 6.0470
 2.6180	 6.0380
 2.6190	 6.0460
 2.6200	 6.0240
 2.6220	 5.9340
 2.6230	 5.9780
 2.6240	 5.9880
 2.6260	 5.9820
 2.6270	 5.9520
 2.6280	 5.9930
 2.6300	 5.9780
 2.6310	 5.9330
 2.6320	 5.8940
 2.6340	 5.9210
 2.6350	 5.9280
 2.6360	 6.0260
 2.6380	 6.0430
 2.6390	 6.0040
 2.6400	 5.9230
 2.6420	 5.8950
 2.6430	 5.8900
 2.6440	 5.8920
 2.6460	 5.8290
 2.6470	 5.8550
 2.6480	 5.8390
 2.6500	 5.8550
 2.6510	 5.8320
 2.6520	 5.8430
 2.6540	 5.8290
 2.6550	 5.8490
 2.6570	 5.8240
 2.6580	 5.8200
 2.6590	 5.7980
 2.6610	 5.8000
 2.6620	 5.7250
 2.6630	 5.6930
 2.6650	 5.6300
 2.6660	 5.6010
 2.6670	 5.5300
 2.6690	 5.5970
 2.6700	 5.5820
 2.6720	 5.5340
 2.6730	 5.5700
 2.6740	 5.6150
 2.6760	 5.6090
 2.6770	 5.5940
 2.6780	 5.5510
 2.6800	 5.5440
 2.6810	 5.5860
 2.6830	 5.6640
 2.6840	 5.6490
 2.6850	 5.6430
 2.6870	 5.6040
 2.6880	 5.5870
 2.6900	 5.5230
 2.6910	 5.5010
 2.6920	 5.4540
 2.6940	 5.4380
 2.6950	 5.4000
 2.6970	 5.4560
 2.6980	 5.4520
 2.6990	 5.4380
 2.7010	 5.4130
 2.7020	 5.4100
 2.7040	 5.3910
 2.7050	 5.4600
 2.7060	 5.4800
 2.7080	 5.4100
 2.7090	 5.2890
 2.7110	 5.2550
 2.7120	 5.2200
 2.7130	 5.2560
 2.7150	 5.2460
 2.7160	 5.2730
 2.7180	 5.2270
 2.7190	 5.1750
 2.7210	 5.1650
 2.7220	 5.1820
 2.7230	 5.1300
 2.7250	 5.1120
 2.7260	 5.1230
 2.7280	 5.1240
 2.7290	 5.0690
 2.7310	 5.0880
 2.7320	 5.1190
 2.7340	 5.1370
 2.7350	 5.0790
 2.7360	 5.0990
 2.7380	 5.1560
 2.7390	 5.1620
 2.7410	 5.0790
 2.7420	 5.1460
 2.7440	 5.1410
 2.7450	 5.0930
 2.7470	 5.0630
 2.7480	 5.0980
 2.7490	 5.0740
 2.7510	 5.0850
 2.7520	 5.1400
 2.7540	 5.1970
 2.7550	 5.0700
 2.7570	 5.0220
 2.7580	 5.0100
 2.7600	 5.0480
 2.7610	 5.0080
 2.7630	 5.0180
 2.7640	 5.0310
 2.7660	 5.0650
 2.7670	 5.0900
 2.7690	 5.1510
 2.7700	 5.1420
 2.7720	 5.0770
 2.7730	 5.0030
 2.7740	 5.0510
 2.7760	 5.1210
 2.7770	 5.1630
 2.7790	 5.1340
 2.7800	 5.1120
 2.7820	 5.0340
 2.7830	 5.0630
 2.7850	 5.0580
 2.7860	 5.0310
 2.7880	 4.9720
 2.7890	 5.0420
 2.7910	 5.0530
 2.7920	 5.0970
 2.7940	 5.0550
 2.7950	 5.0630
 2.7970	 5.0970
 2.7980	 5.1050
 2.8000	 5.0280
 2.8010	 5.0170
 2.8030	 5.0540
 2.8040	 5.0660
 2.8060	 4.9870
 2.8080	 5.0720
 2.8090	 5.0650
 2.8110	 5.0300
 2.8120	 5.0250
 2.8140	 5.0580
 2.8150	 5.0000
 2.8170	 5.0320
 2.8180	 5.0270
 2.8200	 5.0550
 2.8210	 5.0630
 2.8230	 5.0640
 2.8240	 5.0000
 2.8260	 5.0300
 2.8270	 5.0390
 2.8290	 5.0960
 2.8310	 5.0720
 2.8320	 5.1260
 2.8340	 5.1580
 2.8350	 5.1560
 2.8370	 5.0730
 2.8380	 5.0860
 2.8400	 5.0850
 2.8410	 5.0930
 2.8430	 5.0400
 2.8440	 5.0500
 2.8460	 5.0330
 2.8480	 5.0540
 2.8490	 5.0860
 2.8510	 5.1820
 2.8520	 5.2070
 2.8540	 5.1940
 2.8550	 5.1210
 2.8570	 5.1320
 2.8590	 5.0630
 2.8600	 5.0360
 2.8620	 5.0900
 2.8630	 5.1680
 2.8650	 5.1530
 2.8660	 5.1660
 2.8680	 5.1810
 2.8700	 5.2010
 2.8710	 5.1410
 2.8730	 5.1470
 2.8740	 5.1430
 2.8760	 5.1440
 2.8780	 5.1210
 2.8790	 5.1690
 2.8810	 5.1830
 2.8820	 5.2220
 2.8840	 5.2210
 2.8860	 5.2590
 2.8870	 5.2160
 2.8890	 5.1810
 2.8900	 5.1710
 2.8920	 5.1880
 2.8940	 5.2270
 2.8950	 5.3070
 2.8970	 5.2610
 2.8990	 5.2650
 2.9000	 5.1470
 2.9020	 5.1210
 2.9030	 5.1320
 2.9050	 5.1690
 2.9070	 5.1320
 2.9080	 5.1540
 2.9100	 5.1300
 2.9120	 5.1510
 2.9130	 5.1230
 2.9150	 5.1550
 2.9160	 5.2080
 2.9180	 5.1970
 2.9200	 5.1020
 2.9210	 5.1930
 2.9230	 5.2520
 2.9250	 5.2230
 2.9260	 5.1450
 2.9280	 5.1770
 2.9300	 5.1960
 2.9310	 5.2730
 2.9330	 5.2900
 2.9350	 5.2670
 2.9360	 5.2480
 2.9380	 5.2830
 2.9400	 5.2560
 2.9410	 5.2530
 2.9430	 5.2330
 2.9450	 5.2690
 2.9460	 5.2380
 2.9480	 5.2960
 2.9500	 5.2710
 2.9510	 5.2760
 2.9530	 5.2590
 2.9550	 5.2250
 2.9560	 5.1660
 2.9580	 5.2390
 2.9600	 5.2820
 2.9610	 5.3570
 2.9630	 5.3430
 2.9650	 5.3270
 2.9670	 5.3210
 2.9680	 5.3170
 2.9700	 5.2690
 2.9720	 5.3230
 2.9730	 5.2770
 2.9750	 5.2210
 2.9770	 5.2020
 2.9780	 5.2790
 2.9800	 5.2780
 2.9820	 5.3250
 2.9840	 5.3230
 2.9850	 5.3380
 2.9870	 5.3580
 2.9890	 5.4550
 2.9900	 5.3620
 2.9920	 5.2990
 2.9940	 5.2980
 2.9960	 5.3440
 2.9970	 5.3230
 2.9990	 5.3140
 3.0010	 5.2900
 3.0030	 5.2950
 3.0040	 5.2780
 3.0060	 5.3170
 3.0080	 5.3480
 3.0100	 5.3090
 3.0110	 5.2720
 3.0130	 5.3040
 3.0150	 5.3140
 3.0170	 5.3120
 3.0180	 5.3130
 3.0200	 5.3950
 3.0220	 5.3880
 3.0240	 5.3410
 3.0250	 5.3430
 3.0270	 5.3870
 3.0290	 5.3360
 3.0310	 5.3860
 3.0320	 5.3540
 3.0340	 5.4000
 3.0360	 5.4060
 3.0380	 5.3670
 3.0400	 5.3280
 3.0410	 5.3530
 3.0430	 5.3550
 3.0450	 5.3580
 3.0470	 5.3160
 3.0480	 5.4020
 3.0500	 5.3660
 3.0520	 5.3210
 3.0540	 5.3030
 3.0560	 5.3390
 3.0570	 5.3270
 3.0590	 5.3420
 3.0610	 5.3560
 3.0630	 5.3670
 3.0650	 5.3570
 3.0670	 5.3730
 3.0680	 5.3020
 3.0700	 5.3100
 3.0720	 5.3120
 3.0740	 5.3170
 3.0760	 5.2760
 3.0770	 5.3270
 3.0790	 5.3360
 3.0810	 5.3950
 3.0830	 5.3760
 3.0850	 5.3950
 3.0870	 5.3800
 3.0880	 5.3750
 3.0900	 5.3330
 3.0920	 5.3580
 3.0940	 5.3900
 3.0960	 5.4180
 3.0980	 5.3800
 3.1000	 5.4090
 3.1010	 5.4030
 3.1030	 5.3980
 3.1050	 5.3160
 3.1070	 5.3490
 3.1090	 5.3630
 3.1110	 5.3620
 3.1130	 5.3260
 3.1140	 5.3200
 3.1160	 5.2870
 3.1180	 5.3370
 3.1200	 5.3710
 3.1220	 5.3670
 3.1240	 5.3300
 3.1260	 5.3520
 3.1280	 5.3510
 3.1290	 5.3720
 3.1310	 5.3140
 3.1330	 5.3000
 3.1350	 5.2730
 3.1370	 5.2720
 3.1390	 5.2610
 3.1410	 5.2340
 3.1430	 5.2220
 3.1450	 5.3210
 3.1470	 5.3940
 3.1480	 5.4430
 3.1500	 5.4070
 3.1520	 5.3860
 3.1540	 5.3380
 3.1560	 5.3730
 3.1580	 5.3470
 3.1600	 5.3380
 3.1620	 5.2840
 3.1640	 5.2750
 3.1660	 5.2680
 3.1680	 5.3200
 3.1700	 5.3320
 3.1720	 5.3220
 3.1730	 5.3030
 3.1750	 5.3450
 3.1770	 5.3390
 3.1790	 5.3490
 3.1810	 5.3520
 3.1830	 5.3830
 3.1850	 5.3530
 3.1870	 5.3780
 3.1890	 5.3720
 3.1910	 5.3700
 3.1930	 5.3420
 3.1950	 5.3710
 3.1970	 5.3850
 3.1990	 5.3890
 3.2010	 5.3950
 3.2030	 5.3870
 3.2050	 5.2670
 3.2070	 5.2700
 3.2090	 5.3040
 3.2110	 5.3280
 3.2130	 5.2920
 3.2150	 5.2830
 3.2170	 5.2640
 3.2190	 5.2630
 3.2210	 5.2450
 3.2230	 5.2860
 3.2250	 5.2830
 3.2270	 5.3000
 3.2290	 5.2570
 3.2310	 5.2490
 3.2330	 5.2570
 3.2350	 5.2760
 3.2370	 5.2830
 3.2390	 5.3400
 3.2410	 5.3210
 3.2430	 5.2970
 3.2450	 5.2520
 3.2470	 5.2440
 3.2490	 5.2270
 3.2510	 5.2750
 3.2530	 5.2800
 3.2550	 5.2800
 3.2570	 5.2710
 3.2590	 5.2710
 3.2610	 5.2140
 3.2630	 5.2100
 3.2650	 5.2570
 3.2670	 5.3000
 3.2700	 5.2520
 3.2720	 5.3040
 3.2740	 5.3130
 3.2760	 5.2780
 3.2780	 5.2200
 3.2800	 5.2220
 3.2820	 5.2040
 3.2840	 5.2370
 3.2860	 5.2390
 3.2880	 5.2680
 3.2900	 5.2220
 3.2920	 5.2090
 3.2940	 5.1740
 3.2970	 5.1800
 3.2990	 5.1970
 3.3010	 5.2030
 3.3030	 5.1770
 3.3050	 5.1930
 3.3070	 5.1960
 3.3090	 5.2190
 3.3110	 5.1940
 3.3130	 5.1790
 3.3160	 5.1810
 3.3180	 5.1720
 3.3200	 5.1640
 3.3220	 5.1730
 3.3240	 5.1530
 3.3260	 5.1960
 3.3280	 5.1790
 3.3300	 5.1050
 3.3330	 5.0470
 3.3350	 5.0800
 3.3370	 5.0750
 3.3390	 5.1200
 3.3410	 5.1230
 3.3430	 5.1140
 3.3450	 5.0690
 3.3480	 5.0590
 3.3500	 5.0600
 3.3520	 5.0680
 3.3540	 5.0320
 3.3560	 5.0270
 3.3580	 5.0410
 3.3610	 5.0890
 3.3630	 5.0550
 3.3650	 4.9990
 3.3670	 5.0350
 3.3690	 5.0410
 3.3720	 4.9170
 3.3740	 4.9510
 3.3760	 5.0290
 3.3780	 5.0090
 3.3800	 4.9580
 3.3830	 4.9980
 3.3850	 4.9830
 3.3870	 4.9690
 3.3890	 4.9490
 3.3910	 4.9870
 3.3940	 4.9790
 3.3960	 4.9400
 3.3980	 4.9090
 3.4000	 4.9630
 3.4030	 4.9510
 3.4050	 4.9650
 3.4070	 4.9360
 3.4090	 4.9580
 3.4110	 5.0260
 3.4140	 5.0930
 3.4160	 5.1420
 3.4180	 5.3010
 3.4200	 5.5520
 3.4230	 5.8250
 3.4250	 6.1310
 3.4270	 6.5070
 3.4300	 6.8090
 3.4320	 6.8850
 3.4340	 6.7090
 3.4360	 6.5110
 3.4390	 6.2990
 3.4410	 6.1270
 3.4430	 6.0190
 3.4450	 6.0070
 3.4480	 5.9460
 3.4500	 5.8990
 3.4520	 5.8730
 3.4550	 5.8510
 3.4570	 5.7970
 3.4590	 5.7520
 3.4620	 5.7310
 3.4640	 5.7900
 3.4660	 5.7730
 3.4690	 5.6850
 3.4710	 5.6270
 3.4730	 5.6400
 3.4760	 5.6160
 3.4780	 5.5590
 3.4800	 5.4930
 3.4830	 5.4660
 3.4850	 5.4500
 3.4870	 5.4400
 3.4900	 5.3950
 3.4920	 5.3950
 3.4940	 5.3980
 3.4970	 5.3620
 3.4990	 5.3330
 3.5010	 5.3840
 3.5040	 5.4860
 3.5060	 5.7210
 3.5080	 6.1290
 3.5110	 6.5470
 3.5130	 6.6280
 3.5160	 6.5120
 3.5180	 6.3130
 3.5200	 6.1820
 3.5230	 6.0880
 3.5250	 6.0040
 3.5280	 5.9130
 3.5300	 5.8940
 3.5320	 5.8620
 3.5350	 5.8320
 3.5370	 5.7900
 3.5400	 5.7810
 3.5420	 5.7530
 3.5440	 5.7570
 3.5470	 5.7320
 3.5490	 5.7130
 3.5520	 5.6900
 3.5540	 5.6940
 3.5570	 5.7050
 3.5590	 5.7090
 3.5610	 5.6680
 3.5640	 5.6640
 3.5660	 5.6250
 3.5690	 5.6460
 3.5710	 5.6600
 3.5740	 5.6950
 3.5760	 5.6890
 3.5790	 5.6540
 3.5810	 5.6360
 3.5840	 5.6560
 3.5860	 5.6300
 3.5890	 5.6160
 3.5910	 5.6000
 3.5940	 5.6250
 3.5960	 5.6080
 3.5990	 5.5890
 3.6010	 5.5830
 3.6040	 5.6360
 3.6060	 5.6280
 3.6090	 5.6180
 3.6110	 5.6220
 3.6140	 5.6270
 3.6160	 5.6090
 3.6190	 5.6080
 3.6210	 5.5860
 3.6240	 5.5610
 3.6260	 5.5440
 3.6290	 5.5950
 3.6310	 5.6100
 3.6340	 5.5710
 3.6360	 5.5370
 3.6390	 5.5260
 3.6410	 5.5330
 3.6440	 5.5860
 3.6470	 5.5860
 3.6490	 5.6010
 3.6520	 5.5900
 3.6540	 5.5620
 3.6570	 5.5210
 3.6590	 5.5360
 3.6620	 5.5590
 3.6650	 5.6000
 3.6670	 5.5910
 3.6700	 5.5760
 3.6720	 5.5270
 3.6750	 5.5010
 3.6780	 5.5070
 3.6800	 5.5430
 3.6830	 5.5560
 3.6850	 5.5700
 3.6880	 5.5370
 3.6910	 5.5310
 3.6930	 5.5410
 3.6960	 5.5650
 3.6990	 5.5220
 3.7010	 5.4900
 3.7040	 5.4930
 3.7070	 5.5230
 3.7090	 5.5290
 3.7120	 5.5290
 3.7150	 5.5250
 3.7170	 5.5180
 3.7200	 5.5340
 3.7230	 5.5690
 3.7250	 5.5670
 3.7280	 5.5740
 3.7310	 5.5570
 3.7330	 5.5360
 3.7360	 5.4850
 3.7390	 5.5030
 3.7410	 5.5270
 3.7440	 5.5230
 3.7470	 5.5450
 3.7490	 5.5470
 3.7520	 5.5150
 3.7550	 5.5520
 3.7580	 5.5450
 3.7600	 5.5380
 3.7630	 5.5480
 3.7660	 5.5510
 3.7690	 5.5190
 3.7710	 5.4990
 3.7740	 5.4940
 3.7770	 5.5210
 3.7790	 5.5340
 3.7820	 5.5470
 3.7850	 5.5280
 3.7880	 5.5040
 3.7910	 5.4820
 3.7930	 5.5070
 3.7960	 5.5390
 3.7990	 5.5500
 3.8020	 5.5570
 3.8040	 5.5580
 3.8070	 5.5310
 3.8100	 5.5360
 3.8130	 5.5540
 3.8160	 5.5590
 3.8180	 5.5380
 3.8210	 5.5570
 3.8240	 5.5500
 3.8270	 5.5600
 3.8300	 5.5490
 3.8330	 5.5710
 3.8350	 5.5890
 3.8380	 5.5840
 3.8410	 5.5510
 3.8440	 5.5680
 3.8470	 5.5660
 3.8500	 5.5220
 3.8520	 5.4950
 3.8550	 5.5470
 3.8580	 5.5480
 3.8610	 5.5290
 3.8640	 5.5130
 3.8670	 5.5100
 3.8700	 5.5340
 3.8730	 5.5600
 3.8760	 5.5200
 3.8780	 5.4780
 3.8810	 5.5150
 3.8840	 5.5760
 3.8870	 5.5960
 3.8900	 5.5590
 3.8930	 5.5480
 3.8960	 5.5580
 3.8990	 5.5390
 3.9020	 5.5610
 3.9050	 5.5610
 3.9080	 5.5430
 3.9110	 5.5140
 3.9140	 5.5060
 3.9170	 5.5210
 3.9190	 5.5570
 3.9220	 5.5390
 3.9250	 5.5390
 3.9280	 5.5510
 3.9310	 5.5360
 3.9340	 5.5520
 3.9370	 5.5820
 3.9400	 5.5330
 3.9430	 5.5220
 3.9460	 5.5440
 3.9490	 5.5480
 3.9520	 5.5650
 3.9550	 5.5690
 3.9580	 5.5610
 3.9610	 5.5860
 3.9640	 5.5400
 3.9670	 5.5280
 3.9700	 5.5280
 3.9740	 5.5540
 3.9770	 5.5610
 3.9800	 5.5730
 3.9830	 5.5870
 3.9860	 5.5870
 3.9890	 5.5750
 3.9920	 5.5510
 3.9950	 5.5450
 3.9980	 5.5490
 4.0010	 5.5590
 4.0040	 5.5850
 4.0070	 5.5790
 4.0100	 5.5750
 4.0140	 5.5390
 4.0170	 5.5320
 4.0200	 5.5810
 4.0230	 5.6060
 4.0260	 5.5670
 4.0290	 5.5580
 4.0320	 5.5780
 4.0350	 5.6150
 4.0390	 5.5950
 4.0420	 5.5880
 4.0450	 5.5700
 4.0480	 5.5420
 4.0510	 5.5440
 4.0540	 5.5690
 4.0570	 5.5750
 4.0610	 5.5590
 4.0640	 5.5490
 4.0670	 5.5590
 4.0700	 5.5640
 4.0730	 5.5830
 4.0770	 5.6020
 4.0800	 5.5840
 4.0830	 5.5620
 4.0860	 5.5580
 4.0890	 5.5390
 4.0930	 5.5560
 4.0960	 5.5690
 4.0990	 5.5630
 4.1020	 5.5590
 4.1060	 5.5660
 4.1090	 5.5660
 4.1120	 5.5480
 4.1150	 5.5220
 4.1190	 5.5130
 4.1220	 5.5420
 4.1250	 5.5890
 4.1290	 5.5440
 4.1320	 5.5010
 4.1350	 5.5480
 4.1380	 5.5760
 4.1420	 5.5470
 4.1450	 5.5360
 4.1480	 5.5370
 4.1520	 5.5470
 4.1550	 5.5330
 4.1580	 5.4940
 4.1620	 5.5000
 4.1650	 5.5250
 4.1680	 5.5180
 4.1720	 5.5140
 4.1750	 5.5220
 4.1780	 5.5020
 4.1820	 5.5080
 4.1850	 5.5320
 4.1890	 5.5120
 4.1920	 5.5130
 4.1950	 5.5260
 4.1990	 5.5600
 4.2020	 5.5880
 4.2060	 5.5710
 4.2090	 5.5630
 4.2120	 5.6150
 4.2160	 5.6350
 4.2190	 5.6620
 4.2230	 5.5940
 4.2260	 5.5770
 4.2300	 5.6370
 4.2330	 5.6150
 4.2360	 5.5310
 4.2400	 5.5340
 4.2430	 5.5120
 4.2470	 5.5110
 4.2500	 5.5420
 4.2540	 5.4800
 4.2570	 5.5140
 4.2610	 5.5770
 4.2640	 5.6080
 4.2680	 5.6020
 4.2710	 5.5540
 4.2750	 5.5020
 4.2780	 5.4550
 4.2820	 5.4750
 4.2850	 5.5250
 4.2890	 5.5010
 4.2930	 5.5310
 4.2960	 5.5710
 4.3000	 5.5090
 4.3030	 5.5060
 4.3070	 5.5110
 4.3100	 5.4600
 4.3140	 5.4500
 4.3180	 5.4670
 4.3210	 5.4630
 4.3250	 5.4690
 4.3280	 5.4930
 4.3320	 5.5070
 4.3360	 5.4900
 4.3390	 5.4400
 4.3430	 5.4160
 4.3470	 5.4510
 4.3500	 5.4470
 4.3540	 5.4190
 4.3580	 5.3810
 4.3610	 5.3660
 4.3650	 5.3660
 4.3690	 5.3670
 4.3720	 5.3760
 4.3760	 5.3730
 4.3800	 5.3620
 4.3830	 5.3790
 4.3870	 5.4080
 4.3910	 5.3830
 4.3940	 5.3630
 4.3980	 5.3730
 4.4020	 5.3670
 4.4060	 5.3630
 4.4090	 5.3670
 4.4130	 5.3520
 4.4170	 5.3720
 4.4210	 5.3740
 4.4240	 5.3580
 4.4280	 5.3350
 4.4320	 5.3260
 4.4360	 5.3400
 4.4400	 5.3660
 4.4430	 5.3550
 4.4470	 5.3410
 4.4510	 5.3620
 4.4550	 5.3850
 4.4590	 5.3770
 4.4630	 5.3590
 4.4660	 5.3550
 4.4700	 5.3610
 4.4740	 5.3600
 4.4780	 5.3580
 4.4820	 5.3640
 4.4860	 5.3670
 4.4900	 5.3280
 4.4930	 5.3490
 4.4970	 5.3720
 4.5010	 5.3470
 4.5050	 5.3450
 4.5090	 5.3660
 4.5130	 5.3470
 4.5170	 5.3390
 4.5210	 5.3600
 4.5250	 5.3790
 4.5290	 5.3650
 4.5330	 5.3520
 4.5370	 5.3600
 4.5410	 5.3690
 4.5450	 5.3570
 4.5490	 5.3610
 4.5530	 5.3260
 4.5570	 5.2920
 4.5610	 5.2820
 4.5650	 5.3090
 4.5690	 5.3270
 4.5730	 5.3260
 4.5770	 5.3140
 4.5810	 5.3170
 4.5850	 5.3190
 4.5890	 5.3210
 4.5930	 5.3340
 4.5970	 5.3430
 4.6010	 5.3170
 4.6050	 5.3000
 4.6090	 5.2820
 4.6130	 5.2980
 4.6170	 5.2860
 4.6220	 5.3160
 4.6260	 5.3420
 4.6300	 5.3240
 4.6340	 5.3040
 4.6380	 5.3060
 4.6420	 5.3200
 4.6460	 5.3140
 4.6510	 5.3170
 4.6550	 5.3440
 4.6590	 5.3270
 4.6630	 5.3160
 4.6670	 5.3000
 4.6720	 5.2760
 4.6760	 5.2670
 4.6800	 5.2830
 4.6840	 5.2680
 4.6880	 5.2710
 4.6930	 5.2770
 4.6970	 5.2810
 4.7010	 5.2890
 4.7050	 5.2820
 4.7100	 5.2470
 4.7140	 5.2480
 4.7180	 5.2740
 4.7230	 5.3050
 4.7270	 5.2950
 4.7310	 5.2690
 4.7360	 5.2740
 4.7400	 5.3080
 4.7440	 5.2990
 4.7490	 5.3170
 4.7530	 5.2750
 4.7570	 5.2410
 4.7620	 5.2370
 4.7660	 5.2690
 4.7700	 5.2840
 4.7750	 5.2910
 4.7790	 5.2470
 4.7840	 5.2640
 4.7880	 5.2570
 4.7920	 5.2260
 4.7970	 5.2140
 4.8010	 5.2350
 4.8060	 5.2280
 4.8100	 5.2350
 4.8150	 5.2350
 4.8190	 5.2550
 4.8240	 5.2650
 4.8280	 5.2640
 4.8330	 5.2700
 4.8370	 5.2920
 4.8420	 5.2920
 4.8460	 5.2780
 4.8510	 5.2460
 4.8550	 5.2320
 4.8600	 5.2190
 4.8640	 5.2500
 4.8690	 5.2640
 4.8740	 5.2500
 4.8780	 5.2230
 4.8830	 5.2360
 4.8870	 5.2110
 4.8920	 5.2050
 4.8970	 5.2210
 4.9010	 5.2270
 4.9060	 5.2280
 4.9100	 5.2450
 4.9150	 5.2300
 4.9200	 5.2280
 4.9240	 5.2160
 4.9290	 5.2080
 4.9340	 5.2110
 4.9390	 5.2260
 4.9430	 5.2310
 4.9480	 5.2430
 4.9530	 5.2230
 4.9570	 5.2040
 4.9620	 5.1830
 4.9670	 5.1710
 4.9720	 5.1730
 4.9760	 5.2210
 4.9810	 5.2480
 4.9860	 5.2490
 4.9910	 5.2010
 4.9960	 5.1750
 5.0000	 5.2140
 5.0050	 5.2580
 5.0100	 5.2370
 5.0150	 5.2240
 5.0200	 5.2100
 5.0250	 5.2150
 5.0300	 5.2170
 5.0340	 5.2300
 5.0390	 5.2230
 5.0440	 5.2400
 5.0490	 5.2470
 5.0540	 5.2760
 5.0590	 5.2660
 5.0640	 5.2440
 5.0690	 5.2240
 5.0740	 5.2350
 5.0790	 5.2340
 5.0840	 5.2450
 5.0890	 5.2410
 5.0940	 5.2360
 5.0990	 5.2030
 5.1040	 5.2060
 5.1090	 5.2080
 5.1140	 5.2180
 5.1190	 5.2060
 5.1240	 5.1990
 5.1290	 5.1800
 5.1340	 5.2110
 5.1390	 5.2260
 5.1440	 5.2500
 5.1490	 5.2260
 5.1550	 5.2410
 5.1600	 5.2420
 5.1650	 5.2540
 5.1700	 5.2440
 5.1750	 5.2350
 5.1800	 5.2130
 5.1850	 5.2420
 5.1910	 5.2280
 5.1960	 5.2200
 5.2010	 5.2110
 5.2060	 5.2410
 5.2110	 5.2190
 5.2170	 5.2180
 5.2220	 5.2130
 5.2270	 5.2360
 5.2330	 5.2160
 5.2380	 5.2140
 5.2430	 5.2130
 5.2480	 5.2380
 5.2540	 5.2280
 5.2590	 5.2480
 5.2640	 5.2490
 5.2700	 5.2380
 5.2750	 5.2160
 5.2800	 5.2200
 5.2860	 5.1830
 5.2910	 5.1860
 5.2970	 5.1750
 5.3020	 5.2000
 5.3080	 5.1820
 5.3130	 5.2280
 5.3180	 5.2420
 5.3240	 5.2130
 5.3290	 5.2020
 5.3350	 5.2020
 5.3400	 5.1500
 5.3460	 5.1710
 5.3510	 5.1760
 5.3570	 5.1860
 5.3620	 5.1750
 5.3680	 5.2030
 5.3740	 5.1590
 5.3790	 5.1550
 5.3850	 5.1480
 5.3900	 5.1970
 5.3960	 5.2260
 5.4010	 5.2390
 5.4070	 5.1930
 5.4130	 5.1530
 5.4180	 5.1110
 5.4240	 5.1250
 5.4300	 5.1640
 5.4350	 5.2010
 5.4410	 5.1510
 5.4470	 5.1230
 5.4530	 5.0950
 5.4580	 5.1350
 5.4640	 5.1210
 5.4700	 5.1160
 5.4760	 5.1310
 5.4810	 5.1550
 5.4870	 5.1260
 5.4930	 5.1220
 5.4990	 5.0980
 5.5050	 5.1180
 5.5110	 5.0710
 5.5160	 5.0650
 5.5220	 5.0760
 5.5280	 5.0700
 5.5340	 5.0420
 5.5400	 5.0760
 5.5460	 5.0910
 5.5520	 5.0940
 5.5580	 5.0500
 5.5640	 5.0420
 5.5700	 5.0200
 5.5760	 5.0200
 5.5820	 5.0090
 5.5880	 5.0000
 5.5940	 4.9770
 5.6000	 4.9760
 5.6060	 4.9480
 5.6120	 4.9550
 5.6180	 4.9420
 5.6240	 4.9620
 5.6300	 4.9360
 5.6360	 4.9020
 5.6420	 4.8230
 5.6490	 4.8420
 5.6550	 4.8530
 5.6610	 4.8770
 5.6670	 4.8520
 5.6730	 4.8060
 5.6800	 4.8220
 5.6860	 4.8660
 5.6920	 4.8310
 5.6980	 4.8120
 5.7050	 4.7370
 5.7110	 4.7370
 5.7170	 4.7510
 5.7230	 4.7520
 5.7300	 4.7320
 5.7360	 4.7890
 5.7420	 4.8270
 5.7490	 4.9040
 5.7550	 4.9160
 5.7620	 4.9130
 5.7680	 4.8880
 5.7740	 5.0050
 5.7810	 5.0730
 5.7870	 5.1140
 5.7940	 5.0870
 5.8000	 5.1080
 5.8070	 5.1170
 5.8130	 5.1400
 5.8200	 5.1170
 5.8260	 5.1810
 5.8330	 5.2290
 5.8390	 5.2750
 5.8460	 5.2690
 5.8530	 5.2820
 5.8590	 5.2710
 5.8660	 5.3020
 5.8730	 5.2920
 5.8790	 5.2240
 5.8860	 5.1990
 5.8930	 5.2920
 5.8990	 5.2440
 5.9060	 5.2940
 5.9130	 5.3430
 5.9190	 5.3640
 5.9260	 5.3820
 5.9330	 5.3920
 5.9400	 5.3480
 5.9470	 5.4510
 5.9530	 5.4670
 5.9600	 5.5350
 5.9670	 5.5040
 5.9740	 5.5190
 5.9810	 5.5400
 5.9880	 5.5450
 5.9950	 5.5100
 6.0020	 5.5650
 6.0090	 5.5290
 6.0160	 5.5280
 6.0230	 5.5170
 6.0300	 5.5810
 6.0370	 5.5680
 6.0440	 5.5120
 6.0510	 5.3810
 6.0580	 5.5150
 6.0650	 5.5540
 6.0720	 5.5460
 6.0790	 5.5340
 6.0860	 5.6100
 6.0930	 5.6240
 6.1010	 5.6370
 6.1080	 5.5160
 6.1150	 5.5100
 6.1220	 5.5240
 6.1290	 5.5780
 6.1370	 5.5670
 6.1440	 5.5890
 6.1510	 5.5420
 6.1580	 5.5470
 6.1660	 5.5300
 6.1730	 5.5710
 6.1800	 5.5470
 6.1880	 5.5880
 6.1950	 5.6310
 6.2030	 5.6890
 6.2100	 5.6430
 6.2180	 5.6430
 6.2250	 5.6020
 6.2320	 5.6660
 6.2400	 5.6540
 6.2480	 5.6450
 6.2550	 5.6490
 6.2630	 5.6990
 6.2700	 5.6490
 6.2780	 5.6400
 6.2850	 5.6170
 6.2930	 5.6660
 6.3010	 5.5960
 6.3080	 5.6010
 6.3160	 5.6060
 6.3240	 5.6360
 6.3310	 5.6070
 6.3390	 5.5750
 6.3470	 5.5250
 6.3550	 5.6030
 6.3620	 5.5650
 6.3700	 5.5600
 6.3780	 5.5840
 6.3860	 5.6510
 6.3940	 5.6130
 6.4020	 5.5970
 6.4100	 5.4240
 6.4180	 5.3960
 6.4260	 5.4480
 6.4340	 5.4770
 6.4420	 5.4610
 6.4500	 5.5340
 6.4580	 5.5110
 6.4660	 5.4950
 6.4740	 5.4100
 6.4820	 5.4040
 6.4900	 5.2990
 6.4980	 5.3210
 6.5060	 5.3810
 6.5140	 5.4220
 6.5230	 5.3460
 6.5310	 5.3690
 6.5390	 5.3280
 6.5470	 5.3070
 6.5560	 5.2810
 6.5640	 5.2720
 6.5720	 5.1550
 6.5800	 5.1990
 6.5890	 5.2150
 6.5970	 5.2760
 6.6060	 5.2580
 6.6140	 5.2810
 6.6230	 5.2700
 6.6310	 5.2630
 6.6390	 5.2050
 6.6480	 5.3490
 6.6570	 5.3450
 6.6650	 5.3110
 6.6740	 5.2550
 6.6820	 5.2810
 6.6910	 5.2570
 6.7000	 5.2890
 6.7080	 5.2560
 6.7170	 5.2570
 6.7260	 5.2410
 6.7340	 5.3070
 6.7430	 5.2860
 6.7520	 5.2710
 6.7610	 5.1670
 6.7690	 5.1500
 6.7780	 5.1360
 6.7870	 5.2740
 6.7960	 5.3640
 6.8050	 5.3970
 6.8140	 5.3470
 6.8230	 5.4190
 6.8320	 5.5330
 6.8410	 5.6780
 6.8500	 5.5540
 6.8590	 5.4460
 6.8680	 5.3420
 6.8770	 5.4530
 6.8860	 5.4820
 6.8960	 5.4800
 6.9050	 5.4020
 6.9140	 5.4730
 6.9230	 5.4830
 6.9320	 5.5070
 6.9420	 5.4720
 6.9510	 5.4980
 6.9600	 5.4630
 6.9700	 5.5450
 6.9790	 5.4980
 6.9880	 5.5100
 6.9980	 5.4710
 7.0070	 5.5160
 7.0170	 5.5360
 7.0260	 5.5940
 7.0360	 5.5290
 7.0450	 5.4550
 7.0550	 5.4300
 7.0650	 5.5300
 7.0740	 5.4980
 7.0840	 5.5470
 7.0940	 5.5360
 7.1030	 5.5830
 7.1130	 5.5660
 7.1230	 5.5790
 7.1330	 5.5260
 7.1420	 5.5040
 7.1520	 5.3860
 7.1620	 5.4060
 7.1720	 5.4010
 7.1820	 5.4590
 7.1920	 5.4490
 7.2020	 5.4610
 7.2120	 5.3850
 7.2220	 5.4340
 7.2320	 5.4500
 7.2420	 5.4930
 7.2520	 5.4130
 7.2620	 5.4280
 7.2730	 5.3770
 7.2830	 5.4040
 7.2930	 5.3910
 7.3030	 5.4510
 7.3140	 5.3800
 7.3240	 5.4330
 7.3340	 5.4300
 7.3450	 5.4580
 7.3550	 5.4200
 7.3660	 5.4530
 7.3760	 5.4260
 7.3870	 5.4500
 7.3970	 5.4210
 7.4080	 5.4940
 7.4180	 5.4620
 7.4290	 5.4740
 7.4400	 5.4300
 7.4500	 5.4500
 7.4610	 5.3910
 7.4720	 5.4340
 7.4830	 5.3980
 7.4930	 5.4580
 7.5040	 5.4200
 7.5150	 5.4150
 7.5260	 5.3730
 7.5370	 5.4170
 7.5480	 5.3730
 7.5590	 5.3710
 7.5700	 5.2950
 7.5810	 5.3560
 7.5920	 5.3320
 7.6030	 5.3760
 7.6140	 5.2950
 7.6260	 5.2960
 7.6370	 5.2850
 7.6480	 5.3890
 7.6590	 5.3370
 7.6710	 5.3460
 7.6820	 5.3130
 7.6940	 5.3390
 7.7050	 5.2870
 7.7160	 5.3520
 7.7280	 5.3030
 7.7390	 5.3360
 7.7510	 5.2980
 7.7630	 5.3370
 7.7740	 5.2580
 7.7860	 5.2780
 7.7980	 5.2460
 7.8090	 5.3190
 7.8210	 5.2990
 7.8330	 5.3190
 7.8450	 5.2410
 7.8570	 5.2820
 7.8690	 5.2530
 7.8810	 5.3160
 7.8930	 5.2920
 7.9050	 5.3540
 7.9170	 5.3160
 7.9290	 5.3940
 7.9410	 5.3420
 7.9530	 5.3890
 7.9650	 5.3660
 7.9780	 5.4840
 7.9900	 5.4490
 8.0020	 5.4780
 8.0150	 5.4310
 8.0270	 5.5250
 8.0390	 5.5230
 8.0520	 5.5650
 8.0640	 5.4560
 8.0770	 5.4570
 8.0900	 5.4340
 8.1020	 5.5100
 8.1150	 5.4350
 8.1280	 5.5300
 8.1400	 5.4980
 8.1530	 5.5920
 8.1660	 5.5090
 8.1790	 5.5810
 8.1920	 5.5560
 8.2050	 5.5430
 8.2180	 5.4380
 8.2310	 5.5480
 8.2440	 5.5190
 8.2570	 5.6650
 8.2700	 5.6750
 8.2830	 5.7230
 8.2970	 5.6520
 8.3100	 5.6830
 8.3230	 5.6220
 8.3370	 5.6980
 8.3500	 5.6430
 8.3640	 5.7030
 8.3770	 5.6320
 8.3910	 5.7310
 8.4040	 5.7020
 8.4180	 5.7670
 8.4320	 5.7100
 8.4450	 5.8100
 8.4590	 5.7520
 8.4730	 5.8630
 8.4870	 5.8240
 8.5010	 5.9180
 8.5150	 5.8450
 8.5290	 5.8970
 8.5430	 5.9130
 8.5570	 6.0030
 8.5710	 5.9580
 8.5850	 6.1020
 8.5990	 6.0600
 8.6140	 6.1050
 8.6280	 5.9900
 8.6420	 6.0000
 8.6570	 5.9790
 8.6710	 6.0680
 8.6860	 5.9890
 8.7000	 6.0890
 8.7150	 6.0510
 8.7300	 6.0800
 8.7440	 5.9660
 8.7590	 6.0530
 8.7740	 6.0030
 8.7890	 6.0950
 8.8040	 6.0660
 8.8190	 6.1630
 8.8340	 6.1370
 8.8490	 6.1630
 8.8640	 6.0580
 8.8790	 6.1470
 8.8940	 6.0840
 8.9100	 6.1450
 8.9250	 6.0830
 8.9400	 6.1870
 8.9560	 6.0860
 8.9710	 6.2170
 8.9870	 6.1760
 9.0020	 6.2500
 9.0180	 6.1910
 9.0340	 6.3140
 9.0500	 6.2310
 9.0650	 6.2790
 9.0810	 6.1690
 9.0970	 6.2660
 9.1130	 6.2510
 9.1290	 6.3900
 9.1450	 6.2700
 9.1620	 6.2970
 9.1780	 6.1780
 9.1940	 6.2750
 9.2100	 6.2410
 9.2270	 6.3360
 9.2430	 6.2100
 9.2600	 6.2950
 9.2760	 6.2430
 9.2930	 6.2940
 9.3100	 6.1570
 9.3260	 6.2540
 9.3430	 6.1470
 9.3600	 6.2390
 9.3770	 6.1740
 9.3940	 6.2200
 9.4110	 6.1440
 9.4280	 6.2700
 9.4450	 6.1110
 9.4620	 6.1020
 9.4800	 6.0530
 9.4970	 6.2050
 9.5150	 6.1130
 9.5320	 6.2320
 9.5500	 6.1810
 9.5670	 6.2720
 9.5850	 6.1100
 9.6030	 6.1250
 9.6200	 6.0380
 9.6380	 6.1470
 9.6560	 6.0680
 9.6740	 6.1940
 9.6920	 6.1170
 9.7110	 6.1730
 9.7290	 6.0550
 9.7470	 6.1300
 9.7650	 6.0100
 9.7840	 6.1710
 9.8020	 6.1560
 9.8210	 6.2140
 9.8390	 6.0750
 9.8580	 6.1390
 9.8770	 6.0360
 9.8960	 6.1220
 9.9150	 6.0060
 9.9340	 6.0350
 9.9530	 5.9600
 9.9720	 6.0770
 9.9910	 6.0150
10.0100	 6.0750
10.0300	 5.9810
10.0490	 6.0740
10.0690	 5.9870
10.0880	 6.0660
10.1080	 5.9530
10.1280	 5.9960
10.1480	 5.9110
10.1670	 5.9870
10.1870	 5.9270
10.2070	 6.0190
10.2280	 5.9720
10.2480	 6.0740
10.2680	 5.9670
10.2890	 5.9890
10.3090	 5.8900
10.3300	 5.9810
10.3500	 5.8630
10.3710	 5.9800
10.3920	 5.8730
10.4120	 5.9480
10.4330	 5.9060
10.4540	 5.9280
10.4760	 5.8300
10.4970	 5.9570
10.5180	 5.8790
10.5390	 5.9970
10.5610	 5.8990
10.5820	 5.9650
10.6040	 5.9160
10.6260	 6.0300
10.6480	 5.9430
10.6700	 5.9820
10.6920	 5.8630
10.7140	 5.9180
10.7360	 5.8670
10.7580	 5.9800
10.7800	 5.9070
10.8030	 5.9820
10.8250	 5.8260
10.8480	 5.9770
10.8710	 5.9050
10.8940	 5.9040
10.9170	 5.8400
10.9400	 6.0190
10.9630	 5.8840
10.9860	 5.9510
11.0090	 5.8210
11.0330	 5.9220
11.0560	 5.8710
11.0800	 5.9720
11.1040	 5.9320
11.1270	 6.0380
11.1510	 5.8540
11.1750	 5.9390
11.2000	 5.8610
11.2240	 5.9390
11.2480	 5.8370
11.2730	 5.9750
11.2970	 5.8710
11.3220	 5.8750
11.3470	 5.7590
11.3720	 5.9560
11.3970	 5.8970
11.4220	 5.9770
11.4470	 5.9060
11.4720	 6.0940
11.4980	 5.9430
11.5230	 5.9790
11.5490	 5.8930
11.5750	 6.0320
11.6000	 5.9060
11.6260	 6.0140
11.6530	 5.9190
11.6790	 6.0190
11.7050	 5.8710
11.7320	 5.9500
11.7580	 5.8440
11.7850	 6.0290
11.8120	 5.8960
11.8390	 5.9120
11.8660	 5.7810
11.8930	 5.9330
11.9200	 5.8600
11.9480	 5.9770
11.9760	 5.9060
12.0030	 6.0580
12.0310	 5.9390
12.0590	 6.0950
12.0870	 5.9480
12.1150	 6.0580
12.1440	 5.9390
12.1720	 6.0280
12.2010	 5.8130
12.2300	 5.9210
12.2590	 5.8960
12.2880	 6.0500
12.3170	 5.8880
12.3460	 6.0500
12.3760	 5.9710
12.4050	 6.1740
12.4350	 5.9850
12.4650	 6.0690
12.4950	 5.9450
12.5250	 6.1360
12.5550	 5.9670
12.5860	 6.0920
12.6170	 5.9750
12.6470	 6.0720
12.6780	 5.9160
12.7090	 6.1200
12.7410	 6.0070
12.7720	 6.1840
12.8030	 6.0080
12.8350	 6.1510
12.8670	 6.0380
12.8990	 6.0910
12.9310	 5.8750
12.9640	 5.9930
12.9960	 5.7550
13.0290	 5.9420
13.0610	 5.8690
13.0940	 6.0570
13.1280	 5.9830
13.1610	 6.1600
13.1940	 5.9400
13.2280	 5.9860
13.2620	 5.7740
13.2960	 5.9850
13.3300	 5.8360
13.3640	 5.9630
13.3990	 5.6670
13.4340	 5.9020
13.4690	 5.8720
13.5040	 6.0230
13.5390	 5.7930
13.5740	 5.9010
13.6100	 5.6970
13.6460	 5.9780
13.6820	 5.8970
13.7180	 6.0530
13.7540	 5.7160
13.7910	 5.9240
13.8280	 5.8690
13.8650	 6.1690
13.9020	 6.0760
13.9390	 6.2640
13.9770	 5.8420
14.0150	 5.8530
14.0530	 5.7010
14.0910	 6.0090
14.1290	 5.8040
14.1680	 6.0070
14.2070	 5.7780
14.2460	 5.9630
14.2850	 5.7620
14.3240	 6.0280
14.3640	 5.7950
14.4040	 6.1140
14.4440	 5.7440
14.4840	 5.9360
14.5250	 5.7080
14.5660	 6.0580
14.6070	 5.7980
14.6480	 5.9260
14.6900	 5.5760
14.7310	 5.8200
14.7730	 5.4760
14.8150	 5.8400
14.8580	 5.6050
14.9010	 5.8960
14.9440	 5.4750
14.9870	 5.7590
15.0300	 5.3840
15.0740	 5.8200
15.1180	 5.3940
15.1620	 5.8040
15.2060	 5.5910
15.2510	 5.9470
15.2960	 5.5470
15.3410	 5.9430
15.3870	 5.4730
