Name: Tsuga canadensis
Type: Vegetation
Class: Tree
Genus: Tsuga
Species: canadensis
Sample No.: TSCA-1-47
Owner: UCSB
Wavelength Range: VSWIR
Origin: USA; Massachusetts; Harvard Forest
Collection Date: 7/8/2013
Description: Samples were collected as part of NSF Macrosystem Biology proposal titled: Collaborative Research: Thermal controls on ecosystem metabolism and function: scaling from leaves to canopies to regions. Samples were collected and overnighted to JPL facilities for processing. The same leaves were processed in the Nicolet and then measured using the ASD.
Measurement: Bidirectional reflectance
First Column: X
Second Column: Y
X Units: Wavelength (micrometers)
Y Units: Reflectance (percentage)
First X Value: 0.35
Last X Value: 2.5
Number of X Values: 2151
Additional Information: vegetation.tree.tsuga.canadensis.vswir.tsca-1-47.ucsb.asd.ancillary.txt

 0.3500	 2.2390
 0.3510	 2.0160
 0.3520	 1.9140
 0.3530	 2.1040
 0.3540	 2.5040
 0.3550	 2.3120
 0.3560	 2.2420
 0.3570	 2.3340
 0.3580	 2.2960
 0.3590	 2.3020
 0.3600	 2.2290
 0.3610	 2.1150
 0.3620	 2.2670
 0.3630	 2.2120
 0.3640	 2.1180
 0.3650	 2.1960
 0.3660	 2.1730
 0.3670	 2.1170
 0.3680	 2.1190
 0.3690	 2.2540
 0.3700	 2.2800
 0.3710	 2.2250
 0.3720	 2.1620
 0.3730	 2.1750
 0.3740	 2.1800
 0.3750	 2.1520
 0.3760	 2.1050
 0.3770	 2.1420
 0.3780	 2.1240
 0.3790	 2.0730
 0.3800	 2.1410
 0.3810	 2.1620
 0.3820	 2.1700
 0.3830	 2.1920
 0.3840	 2.1400
 0.3850	 2.1400
 0.3860	 2.1780
 0.3870	 2.2000
 0.3880	 2.2410
 0.3890	 2.1850
 0.3900	 2.0640
 0.3910	 2.0590
 0.3920	 2.1150
 0.3930	 2.1520
 0.3940	 2.1320
 0.3950	 2.1560
 0.3960	 2.1760
 0.3970	 2.1760
 0.3980	 2.1620
 0.3990	 2.1830
 0.4000	 2.2100
 0.4010	 2.2260
 0.4020	 2.2380
 0.4030	 2.2130
 0.4040	 2.1910
 0.4050	 2.2110
 0.4060	 2.2430
 0.4070	 2.2640
 0.4080	 2.2780
 0.4090	 2.3010
 0.4100	 2.2500
 0.4110	 2.2510
 0.4120	 2.3320
 0.4130	 2.3060
 0.4140	 2.3000
 0.4150	 2.3290
 0.4160	 2.3650
 0.4170	 2.3460
 0.4180	 2.3560
 0.4190	 2.3950
 0.4200	 2.3830
 0.4210	 2.3850
 0.4220	 2.3960
 0.4230	 2.3980
 0.4240	 2.3990
 0.4250	 2.4090
 0.4260	 2.4170
 0.4270	 2.4080
 0.4280	 2.4300
 0.4290	 2.4400
 0.4300	 2.4280
 0.4310	 2.4400
 0.4320	 2.4430
 0.4330	 2.4440
 0.4340	 2.4550
 0.4350	 2.4500
 0.4360	 2.4590
 0.4370	 2.4790
 0.4380	 2.4910
 0.4390	 2.4950
 0.4400	 2.4780
 0.4410	 2.4490
 0.4420	 2.4700
 0.4430	 2.4800
 0.4440	 2.4770
 0.4450	 2.4770
 0.4460	 2.4680
 0.4470	 2.4680
 0.4480	 2.4800
 0.4490	 2.4830
 0.4500	 2.4910
 0.4510	 2.5000
 0.4520	 2.5050
 0.4530	 2.5090
 0.4540	 2.5060
 0.4550	 2.5040
 0.4560	 2.5200
 0.4570	 2.5230
 0.4580	 2.5100
 0.4590	 2.4970
 0.4600	 2.5270
 0.4610	 2.5290
 0.4620	 2.5160
 0.4630	 2.5200
 0.4640	 2.5180
 0.4650	 2.5240
 0.4660	 2.5330
 0.4670	 2.5200
 0.4680	 2.5300
 0.4690	 2.5480
 0.4700	 2.5530
 0.4710	 2.5420
 0.4720	 2.5260
 0.4730	 2.5150
 0.4740	 2.5200
 0.4750	 2.5310
 0.4760	 2.5340
 0.4770	 2.5250
 0.4780	 2.5230
 0.4790	 2.5280
 0.4800	 2.5410
 0.4810	 2.5540
 0.4820	 2.5490
 0.4830	 2.5480
 0.4840	 2.5570
 0.4850	 2.5660
 0.4860	 2.5600
 0.4870	 2.5590
 0.4880	 2.5700
 0.4890	 2.5720
 0.4900	 2.5800
 0.4910	 2.5920
 0.4920	 2.6010
 0.4930	 2.6040
 0.4940	 2.6110
 0.4950	 2.6270
 0.4960	 2.6480
 0.4970	 2.6630
 0.4980	 2.6740
 0.4990	 2.6870
 0.5000	 2.7080
 0.5010	 2.7310
 0.5020	 2.7620
 0.5030	 2.8090
 0.5040	 2.8480
 0.5050	 2.8830
 0.5060	 2.9240
 0.5070	 2.9890
 0.5080	 3.0580
 0.5090	 3.1270
 0.5100	 3.1990
 0.5110	 3.2850
 0.5120	 3.3810
 0.5130	 3.4840
 0.5140	 3.5940
 0.5150	 3.7190
 0.5160	 3.8520
 0.5170	 3.9850
 0.5180	 4.1350
 0.5190	 4.2910
 0.5200	 4.4490
 0.5210	 4.6100
 0.5220	 4.7710
 0.5230	 4.9290
 0.5240	 5.0800
 0.5250	 5.2260
 0.5260	 5.3730
 0.5270	 5.5110
 0.5280	 5.6300
 0.5290	 5.7430
 0.5300	 5.8490
 0.5310	 5.9410
 0.5320	 6.0210
 0.5330	 6.0960
 0.5340	 6.1690
 0.5350	 6.2370
 0.5360	 6.2820
 0.5370	 6.3250
 0.5380	 6.3700
 0.5390	 6.4130
 0.5400	 6.4540
 0.5410	 6.4950
 0.5420	 6.5370
 0.5430	 6.5880
 0.5440	 6.6260
 0.5450	 6.6540
 0.5460	 6.6830
 0.5470	 6.6950
 0.5480	 6.7070
 0.5490	 6.7220
 0.5500	 6.7340
 0.5510	 6.7470
 0.5520	 6.7530
 0.5530	 6.7490
 0.5540	 6.7400
 0.5550	 6.7160
 0.5560	 6.6780
 0.5570	 6.6350
 0.5580	 6.5800
 0.5590	 6.5160
 0.5600	 6.4470
 0.5610	 6.3710
 0.5620	 6.2910
 0.5630	 6.2060
 0.5640	 6.1130
 0.5650	 6.0200
 0.5660	 5.9180
 0.5670	 5.8100
 0.5680	 5.7130
 0.5690	 5.5990
 0.5700	 5.4830
 0.5710	 5.3800
 0.5720	 5.2810
 0.5730	 5.1860
 0.5740	 5.0950
 0.5750	 5.0070
 0.5760	 4.9320
 0.5770	 4.8660
 0.5780	 4.8030
 0.5790	 4.7470
 0.5800	 4.6940
 0.5810	 4.6420
 0.5820	 4.5910
 0.5830	 4.5400
 0.5840	 4.4950
 0.5850	 4.4580
 0.5860	 4.4240
 0.5870	 4.3870
 0.5880	 4.3500
 0.5890	 4.3170
 0.5900	 4.2840
 0.5910	 4.2590
 0.5920	 4.2380
 0.5930	 4.2090
 0.5940	 4.1880
 0.5950	 4.1740
 0.5960	 4.1640
 0.5970	 4.1470
 0.5980	 4.1330
 0.5990	 4.1190
 0.6000	 4.1010
 0.6010	 4.0830
 0.6020	 4.0640
 0.6030	 4.0420
 0.6040	 4.0160
 0.6050	 3.9790
 0.6060	 3.9420
 0.6070	 3.9110
 0.6080	 3.8750
 0.6090	 3.8410
 0.6100	 3.8150
 0.6110	 3.7940
 0.6120	 3.7500
 0.6130	 3.7010
 0.6140	 3.6600
 0.6150	 3.6230
 0.6160	 3.5850
 0.6170	 3.5510
 0.6180	 3.5220
 0.6190	 3.4970
 0.6200	 3.4750
 0.6210	 3.4560
 0.6220	 3.4430
 0.6230	 3.4240
 0.6240	 3.4100
 0.6250	 3.4040
 0.6260	 3.3960
 0.6270	 3.3900
 0.6280	 3.3860
 0.6290	 3.3820
 0.6300	 3.3780
 0.6310	 3.3740
 0.6320	 3.3680
 0.6330	 3.3590
 0.6340	 3.3500
 0.6350	 3.3380
 0.6360	 3.3190
 0.6370	 3.2950
 0.6380	 3.2660
 0.6390	 3.2350
 0.6400	 3.2070
 0.6410	 3.1730
 0.6420	 3.1370
 0.6430	 3.1030
 0.6440	 3.0670
 0.6450	 3.0350
 0.6460	 3.0060
 0.6470	 2.9800
 0.6480	 2.9550
 0.6490	 2.9330
 0.6500	 2.9130
 0.6510	 2.8950
 0.6520	 2.8810
 0.6530	 2.8670
 0.6540	 2.8530
 0.6550	 2.8410
 0.6560	 2.8300
 0.6570	 2.8140
 0.6580	 2.7940
 0.6590	 2.7770
 0.6600	 2.7610
 0.6610	 2.7460
 0.6620	 2.7280
 0.6630	 2.7100
 0.6640	 2.6970
 0.6650	 2.6880
 0.6660	 2.6750
 0.6670	 2.6670
 0.6680	 2.6620
 0.6690	 2.6550
 0.6700	 2.6560
 0.6710	 2.6600
 0.6720	 2.6630
 0.6730	 2.6670
 0.6740	 2.6720
 0.6750	 2.6800
 0.6760	 2.6910
 0.6770	 2.7010
 0.6780	 2.7110
 0.6790	 2.7250
 0.6800	 2.7470
 0.6810	 2.7650
 0.6820	 2.7870
 0.6830	 2.8170
 0.6840	 2.8400
 0.6850	 2.8730
 0.6860	 2.9170
 0.6870	 2.9690
 0.6880	 3.0330
 0.6890	 3.1150
 0.6900	 3.2200
 0.6910	 3.3530
 0.6920	 3.5220
 0.6930	 3.7290
 0.6940	 3.9790
 0.6950	 4.2800
 0.6960	 4.6330
 0.6970	 5.0350
 0.6980	 5.4850
 0.6990	 5.9880
 0.7000	 6.5400
 0.7010	 7.1390
 0.7020	 7.7770
 0.7030	 8.4470
 0.7040	 9.1500
 0.7050	 9.8860
 0.7060	10.6530
 0.7070	11.4450
 0.7080	12.2550
 0.7090	13.0790
 0.7100	13.9280
 0.7110	14.7940
 0.7120	15.6760
 0.7130	16.5740
 0.7140	17.4750
 0.7150	18.3860
 0.7160	19.3100
 0.7170	20.2360
 0.7180	21.1630
 0.7190	22.0900
 0.7200	23.0180
 0.7210	23.9410
 0.7220	24.8560
 0.7230	25.7590
 0.7240	26.6480
 0.7250	27.5230
 0.7260	28.3790
 0.7270	29.2100
 0.7280	30.0170
 0.7290	30.7940
 0.7300	31.5460
 0.7310	32.2800
 0.7320	32.9660
 0.7330	33.6270
 0.7340	34.2700
 0.7350	34.8770
 0.7360	35.4570
 0.7370	36.0080
 0.7380	36.5270
 0.7390	37.0180
 0.7400	37.4800
 0.7410	37.9150
 0.7420	38.3280
 0.7430	38.7200
 0.7440	39.0810
 0.7450	39.4120
 0.7460	39.7230
 0.7470	40.0220
 0.7480	40.2930
 0.7490	40.5340
 0.7500	40.7740
 0.7510	40.9950
 0.7520	41.1910
 0.7530	41.3630
 0.7540	41.5320
 0.7550	41.6870
 0.7560	41.8260
 0.7570	41.9490
 0.7580	42.0620
 0.7590	42.1700
 0.7600	42.2730
 0.7610	42.3600
 0.7620	42.4370
 0.7630	42.5090
 0.7640	42.5790
 0.7650	42.6360
 0.7660	42.6920
 0.7670	42.7480
 0.7680	42.7970
 0.7690	42.8270
 0.7700	42.8660
 0.7710	42.9170
 0.7720	42.9470
 0.7730	42.9860
 0.7740	43.0200
 0.7750	43.0380
 0.7760	43.0720
 0.7770	43.0940
 0.7780	43.1100
 0.7790	43.1360
 0.7800	43.1660
 0.7810	43.1860
 0.7820	43.1980
 0.7830	43.2160
 0.7840	43.2400
 0.7850	43.2660
 0.7860	43.2880
 0.7870	43.2870
 0.7880	43.3090
 0.7890	43.3310
 0.7900	43.3310
 0.7910	43.3630
 0.7920	43.3790
 0.7930	43.3820
 0.7940	43.4050
 0.7950	43.4260
 0.7960	43.4380
 0.7970	43.4420
 0.7980	43.4510
 0.7990	43.4680
 0.8000	43.4850
 0.8010	43.4940
 0.8020	43.5060
 0.8030	43.5150
 0.8040	43.5230
 0.8050	43.5360
 0.8060	43.5560
 0.8070	43.5630
 0.8080	43.5590
 0.8090	43.5650
 0.8100	43.5680
 0.8110	43.5790
 0.8120	43.5980
 0.8130	43.6040
 0.8140	43.6130
 0.8150	43.6220
 0.8160	43.6260
 0.8170	43.6240
 0.8180	43.6350
 0.8190	43.6540
 0.8200	43.6640
 0.8210	43.6750
 0.8220	43.6800
 0.8230	43.6840
 0.8240	43.6980
 0.8250	43.7060
 0.8260	43.7170
 0.8270	43.7310
 0.8280	43.7230
 0.8290	43.7180
 0.8300	43.7240
 0.8310	43.7380
 0.8320	43.7400
 0.8330	43.7500
 0.8340	43.7610
 0.8350	43.7590
 0.8360	43.7590
 0.8370	43.7760
 0.8380	43.8010
 0.8390	43.8070
 0.8400	43.8280
 0.8410	43.8440
 0.8420	43.8460
 0.8430	43.8560
 0.8440	43.8800
 0.8450	43.9010
 0.8460	43.9090
 0.8470	43.9190
 0.8480	43.9250
 0.8490	43.9400
 0.8500	43.9720
 0.8510	43.9880
 0.8520	43.9900
 0.8530	43.9960
 0.8540	44.0240
 0.8550	44.0420
 0.8560	44.0450
 0.8570	44.0470
 0.8580	44.0680
 0.8590	44.0800
 0.8600	44.0870
 0.8610	44.0990
 0.8620	44.1260
 0.8630	44.1330
 0.8640	44.1260
 0.8650	44.1260
 0.8660	44.1520
 0.8670	44.1680
 0.8680	44.1770
 0.8690	44.1950
 0.8700	44.1990
 0.8710	44.2050
 0.8720	44.2230
 0.8730	44.2500
 0.8740	44.2430
 0.8750	44.2430
 0.8760	44.2620
 0.8770	44.2800
 0.8780	44.2940
 0.8790	44.2920
 0.8800	44.2820
 0.8810	44.2950
 0.8820	44.2890
 0.8830	44.2860
 0.8840	44.3050
 0.8850	44.3280
 0.8860	44.3380
 0.8870	44.3350
 0.8880	44.3310
 0.8890	44.3380
 0.8900	44.3390
 0.8910	44.3340
 0.8920	44.3290
 0.8930	44.3330
 0.8940	44.3410
 0.8950	44.3450
 0.8960	44.3420
 0.8970	44.3680
 0.8980	44.3820
 0.8990	44.3740
 0.9000	44.3710
 0.9010	44.3600
 0.9020	44.3520
 0.9030	44.3540
 0.9040	44.3670
 0.9050	44.3820
 0.9060	44.3800
 0.9070	44.3610
 0.9080	44.3620
 0.9090	44.3670
 0.9100	44.3660
 0.9110	44.3580
 0.9120	44.3700
 0.9130	44.3750
 0.9140	44.3690
 0.9150	44.3580
 0.9160	44.3460
 0.9170	44.3430
 0.9180	44.3450
 0.9190	44.3440
 0.9200	44.3300
 0.9210	44.2980
 0.9220	44.2690
 0.9230	44.2710
 0.9240	44.2840
 0.9250	44.2750
 0.9260	44.2450
 0.9270	44.2200
 0.9280	44.2080
 0.9290	44.1930
 0.9300	44.1690
 0.9310	44.1380
 0.9320	44.1070
 0.9330	44.0840
 0.9340	44.0590
 0.9350	44.0040
 0.9360	43.9740
 0.9370	43.9460
 0.9380	43.9080
 0.9390	43.8780
 0.9400	43.8240
 0.9410	43.7620
 0.9420	43.7180
 0.9430	43.7060
 0.9440	43.6500
 0.9450	43.5760
 0.9460	43.5160
 0.9470	43.4530
 0.9480	43.3760
 0.9490	43.2900
 0.9500	43.2050
 0.9510	43.1260
 0.9520	43.0550
 0.9530	42.9700
 0.9540	42.8580
 0.9550	42.7440
 0.9560	42.6430
 0.9570	42.5580
 0.9580	42.4830
 0.9590	42.4040
 0.9600	42.3330
 0.9610	42.2610
 0.9620	42.1890
 0.9630	42.1770
 0.9640	42.1460
 0.9650	42.1040
 0.9660	42.0860
 0.9670	42.0850
 0.9680	42.0560
 0.9690	42.0130
 0.9700	41.9920
 0.9710	41.9920
 0.9720	41.9740
 0.9730	41.9450
 0.9740	41.9350
 0.9750	41.9540
 0.9760	41.9600
 0.9770	41.9520
 0.9780	41.9510
 0.9790	41.9720
 0.9800	41.9570
 0.9810	41.9440
 0.9820	41.9920
 0.9830	42.0270
 0.9840	42.0410
 0.9850	42.0630
 0.9860	42.1190
 0.9870	42.1200
 0.9880	42.1350
 0.9890	42.1610
 0.9900	42.1720
 0.9910	42.2240
 0.9920	42.2860
 0.9930	42.3470
 0.9940	42.4080
 0.9950	42.4690
 0.9960	42.5310
 0.9970	42.5920
 0.9980	42.6530
 0.9990	42.7140
 1.0000	42.7760
 1.0010	42.8370
 1.0020	42.8980
 1.0030	42.9590
 1.0040	43.0210
 1.0050	43.0820
 1.0060	43.1430
 1.0070	43.2040
 1.0080	43.2660
 1.0090	43.3270
 1.0100	43.3270
 1.0110	43.3610
 1.0120	43.4000
 1.0130	43.4370
 1.0140	43.4770
 1.0150	43.5200
 1.0160	43.5660
 1.0170	43.6130
 1.0180	43.6590
 1.0190	43.7010
 1.0200	43.7390
 1.0210	43.7740
 1.0220	43.8130
 1.0230	43.8540
 1.0240	43.9030
 1.0250	43.9420
 1.0260	43.9780
 1.0270	44.0140
 1.0280	44.0430
 1.0290	44.0780
 1.0300	44.1240
 1.0310	44.1580
 1.0320	44.1860
 1.0330	44.2150
 1.0340	44.2430
 1.0350	44.2770
 1.0360	44.3160
 1.0370	44.3540
 1.0380	44.3870
 1.0390	44.4130
 1.0400	44.4470
 1.0410	44.4870
 1.0420	44.5190
 1.0430	44.5570
 1.0440	44.5840
 1.0450	44.5960
 1.0460	44.6200
 1.0470	44.6470
 1.0480	44.6720
 1.0490	44.7050
 1.0500	44.7310
 1.0510	44.7500
 1.0520	44.7690
 1.0530	44.7900
 1.0540	44.8110
 1.0550	44.8280
 1.0560	44.8450
 1.0570	44.8590
 1.0580	44.8720
 1.0590	44.8830
 1.0600	44.8900
 1.0610	44.9020
 1.0620	44.9170
 1.0630	44.9300
 1.0640	44.9470
 1.0650	44.9590
 1.0660	44.9630
 1.0670	44.9720
 1.0680	44.9810
 1.0690	44.9920
 1.0700	44.9980
 1.0710	45.0050
 1.0720	45.0110
 1.0730	45.0150
 1.0740	45.0170
 1.0750	45.0210
 1.0760	45.0200
 1.0770	45.0110
 1.0780	45.0090
 1.0790	45.0080
 1.0800	45.0080
 1.0810	45.0140
 1.0820	45.0120
 1.0830	45.0030
 1.0840	44.9970
 1.0850	44.9890
 1.0860	44.9790
 1.0870	44.9740
 1.0880	44.9750
 1.0890	44.9690
 1.0900	44.9630
 1.0910	44.9530
 1.0920	44.9370
 1.0930	44.9230
 1.0940	44.9120
 1.0950	44.8960
 1.0960	44.8740
 1.0970	44.8590
 1.0980	44.8460
 1.0990	44.8310
 1.1000	44.8210
 1.1010	44.8090
 1.1020	44.7950
 1.1030	44.7750
 1.1040	44.7530
 1.1050	44.7330
 1.1060	44.7120
 1.1070	44.6890
 1.1080	44.6670
 1.1090	44.6510
 1.1100	44.6280
 1.1110	44.6010
 1.1120	44.5760
 1.1130	44.5530
 1.1140	44.5250
 1.1150	44.4990
 1.1160	44.4680
 1.1170	44.4320
 1.1180	44.3940
 1.1190	44.3560
 1.1200	44.3100
 1.1210	44.2570
 1.1220	44.2080
 1.1230	44.1470
 1.1240	44.0790
 1.1250	44.0060
 1.1260	43.9310
 1.1270	43.8400
 1.1280	43.7420
 1.1290	43.6300
 1.1300	43.5060
 1.1310	43.3720
 1.1320	43.2280
 1.1330	43.0720
 1.1340	42.9030
 1.1350	42.7240
 1.1360	42.5330
 1.1370	42.3320
 1.1380	42.1320
 1.1390	41.9190
 1.1400	41.6990
 1.1410	41.4800
 1.1420	41.2490
 1.1430	41.0200
 1.1440	40.7940
 1.1450	40.5640
 1.1460	40.3450
 1.1470	40.1270
 1.1480	39.9210
 1.1490	39.7220
 1.1500	39.5350
 1.1510	39.3520
 1.1520	39.1870
 1.1530	39.0360
 1.1540	38.8970
 1.1550	38.7700
 1.1560	38.6620
 1.1570	38.5630
 1.1580	38.4760
 1.1590	38.3990
 1.1600	38.3280
 1.1610	38.2620
 1.1620	38.2020
 1.1630	38.1500
 1.1640	38.1070
 1.1650	38.0700
 1.1660	38.0460
 1.1670	38.0180
 1.1680	37.9960
 1.1690	37.9720
 1.1700	37.9470
 1.1710	37.9250
 1.1720	37.9040
 1.1730	37.8840
 1.1740	37.8650
 1.1750	37.8450
 1.1760	37.8250
 1.1770	37.8070
 1.1780	37.7880
 1.1790	37.7680
 1.1800	37.7460
 1.1810	37.7220
 1.1820	37.6990
 1.1830	37.6720
 1.1840	37.6470
 1.1850	37.6240
 1.1860	37.6020
 1.1870	37.5850
 1.1880	37.5650
 1.1890	37.5430
 1.1900	37.5270
 1.1910	37.5110
 1.1920	37.5000
 1.1930	37.4950
 1.1940	37.4910
 1.1950	37.4890
 1.1960	37.4890
 1.1970	37.4930
 1.1980	37.5000
 1.1990	37.5080
 1.2000	37.5200
 1.2010	37.5380
 1.2020	37.5560
 1.2030	37.5790
 1.2040	37.6020
 1.2050	37.6220
 1.2060	37.6460
 1.2070	37.6750
 1.2080	37.7070
 1.2090	37.7390
 1.2100	37.7750
 1.2110	37.8140
 1.2120	37.8530
 1.2130	37.8960
 1.2140	37.9480
 1.2150	37.9960
 1.2160	38.0440
 1.2170	38.0960
 1.2180	38.1470
 1.2190	38.1980
 1.2200	38.2520
 1.2210	38.3070
 1.2220	38.3620
 1.2230	38.4160
 1.2240	38.4730
 1.2250	38.5290
 1.2260	38.5810
 1.2270	38.6340
 1.2280	38.6830
 1.2290	38.7320
 1.2300	38.7820
 1.2310	38.8330
 1.2320	38.8820
 1.2330	38.9280
 1.2340	38.9730
 1.2350	39.0160
 1.2360	39.0570
 1.2370	39.0940
 1.2380	39.1340
 1.2390	39.1710
 1.2400	39.2110
 1.2410	39.2500
 1.2420	39.2830
 1.2430	39.3150
 1.2440	39.3490
 1.2450	39.3830
 1.2460	39.4200
 1.2470	39.4530
 1.2480	39.4820
 1.2490	39.5060
 1.2500	39.5300
 1.2510	39.5560
 1.2520	39.5790
 1.2530	39.6000
 1.2540	39.6190
 1.2550	39.6360
 1.2560	39.6540
 1.2570	39.6720
 1.2580	39.6860
 1.2590	39.7000
 1.2600	39.7120
 1.2610	39.7230
 1.2620	39.7350
 1.2630	39.7440
 1.2640	39.7520
 1.2650	39.7560
 1.2660	39.7550
 1.2670	39.7590
 1.2680	39.7630
 1.2690	39.7600
 1.2700	39.7560
 1.2710	39.7500
 1.2720	39.7420
 1.2730	39.7340
 1.2740	39.7250
 1.2750	39.7160
 1.2760	39.7020
 1.2770	39.6840
 1.2780	39.6690
 1.2790	39.6500
 1.2800	39.6310
 1.2810	39.6130
 1.2820	39.5900
 1.2830	39.5640
 1.2840	39.5340
 1.2850	39.5030
 1.2860	39.4680
 1.2870	39.4310
 1.2880	39.3900
 1.2890	39.3500
 1.2900	39.3040
 1.2910	39.2550
 1.2920	39.2050
 1.2930	39.1540
 1.2940	39.0970
 1.2950	39.0330
 1.2960	38.9680
 1.2970	38.9010
 1.2980	38.8270
 1.2990	38.7500
 1.3000	38.6680
 1.3010	38.5790
 1.3020	38.4880
 1.3030	38.3930
 1.3040	38.2940
 1.3050	38.1930
 1.3060	38.0900
 1.3070	37.9840
 1.3080	37.8740
 1.3090	37.7580
 1.3100	37.6360
 1.3110	37.5110
 1.3120	37.3860
 1.3130	37.2550
 1.3140	37.1190
 1.3150	36.9790
 1.3160	36.8340
 1.3170	36.6840
 1.3180	36.5270
 1.3190	36.3670
 1.3200	36.2040
 1.3210	36.0340
 1.3220	35.8630
 1.3230	35.6840
 1.3240	35.5000
 1.3250	35.3170
 1.3260	35.1320
 1.3270	34.9470
 1.3280	34.7610
 1.3290	34.5690
 1.3300	34.3760
 1.3310	34.1780
 1.3320	33.9790
 1.3330	33.7820
 1.3340	33.5850
 1.3350	33.3880
 1.3360	33.1920
 1.3370	32.9910
 1.3380	32.7930
 1.3390	32.5970
 1.3400	32.4000
 1.3410	32.2070
 1.3420	32.0170
 1.3430	31.8280
 1.3440	31.6430
 1.3450	31.4620
 1.3460	31.2840
 1.3470	31.1060
 1.3480	30.9280
 1.3490	30.7540
 1.3500	30.5820
 1.3510	30.4120
 1.3520	30.2430
 1.3530	30.0750
 1.3540	29.9050
 1.3550	29.7350
 1.3560	29.5660
 1.3570	29.3980
 1.3580	29.2320
 1.3590	29.0610
 1.3600	28.8850
 1.3610	28.7070
 1.3620	28.5210
 1.3630	28.3290
 1.3640	28.1310
 1.3650	27.9220
 1.3660	27.7060
 1.3670	27.4800
 1.3680	27.2400
 1.3690	26.9890
 1.3700	26.7210
 1.3710	26.4410
 1.3720	26.1460
 1.3730	25.8340
 1.3740	25.5070
 1.3750	25.1590
 1.3760	24.7880
 1.3770	24.3980
 1.3780	23.9840
 1.3790	23.5480
 1.3800	23.0930
 1.3810	22.6140
 1.3820	22.1230
 1.3830	21.6150
 1.3840	21.0940
 1.3850	20.5590
 1.3860	20.0180
 1.3870	19.4580
 1.3880	18.9070
 1.3890	18.3520
 1.3900	17.7960
 1.3910	17.2500
 1.3920	16.7070
 1.3930	16.1670
 1.3940	15.6390
 1.3950	15.1200
 1.3960	14.6160
 1.3970	14.1310
 1.3980	13.6630
 1.3990	13.2200
 1.4000	12.7950
 1.4010	12.3890
 1.4020	12.0070
 1.4030	11.6440
 1.4040	11.3020
 1.4050	10.9830
 1.4060	10.6830
 1.4070	10.4060
 1.4080	10.1490
 1.4090	 9.9080
 1.4100	 9.6880
 1.4110	 9.4820
 1.4120	 9.2940
 1.4130	 9.1210
 1.4140	 8.9590
 1.4150	 8.8140
 1.4160	 8.6810
 1.4170	 8.5590
 1.4180	 8.4480
 1.4190	 8.3460
 1.4200	 8.2530
 1.4210	 8.1650
 1.4220	 8.0870
 1.4230	 8.0170
 1.4240	 7.9530
 1.4250	 7.8960
 1.4260	 7.8480
 1.4270	 7.8030
 1.4280	 7.7640
 1.4290	 7.7280
 1.4300	 7.6950
 1.4310	 7.6670
 1.4320	 7.6430
 1.4330	 7.6220
 1.4340	 7.6050
 1.4350	 7.5900
 1.4360	 7.5790
 1.4370	 7.5700
 1.4380	 7.5650
 1.4390	 7.5630
 1.4400	 7.5620
 1.4410	 7.5630
 1.4420	 7.5670
 1.4430	 7.5710
 1.4440	 7.5770
 1.4450	 7.5850
 1.4460	 7.5930
 1.4470	 7.6010
 1.4480	 7.6120
 1.4490	 7.6250
 1.4500	 7.6370
 1.4510	 7.6510
 1.4520	 7.6660
 1.4530	 7.6810
 1.4540	 7.7000
 1.4550	 7.7210
 1.4560	 7.7410
 1.4570	 7.7630
 1.4580	 7.7850
 1.4590	 7.8080
 1.4600	 7.8350
 1.4610	 7.8660
 1.4620	 7.9010
 1.4630	 7.9390
 1.4640	 7.9790
 1.4650	 8.0230
 1.4660	 8.0710
 1.4670	 8.1220
 1.4680	 8.1770
 1.4690	 8.2350
 1.4700	 8.2960
 1.4710	 8.3610
 1.4720	 8.4300
 1.4730	 8.5010
 1.4740	 8.5740
 1.4750	 8.6480
 1.4760	 8.7250
 1.4770	 8.8030
 1.4780	 8.8840
 1.4790	 8.9670
 1.4800	 9.0500
 1.4810	 9.1350
 1.4820	 9.2220
 1.4830	 9.3080
 1.4840	 9.3960
 1.4850	 9.4860
 1.4860	 9.5760
 1.4870	 9.6700
 1.4880	 9.7640
 1.4890	 9.8590
 1.4900	 9.9560
 1.4910	10.0530
 1.4920	10.1520
 1.4930	10.2550
 1.4940	10.3550
 1.4950	10.4560
 1.4960	10.5560
 1.4970	10.6530
 1.4980	10.7540
 1.4990	10.8570
 1.5000	10.9600
 1.5010	11.0650
 1.5020	11.1690
 1.5030	11.2730
 1.5040	11.3770
 1.5050	11.4800
 1.5060	11.5850
 1.5070	11.6900
 1.5080	11.7950
 1.5090	11.9010
 1.5100	12.0070
 1.5110	12.1110
 1.5120	12.2160
 1.5130	12.3190
 1.5140	12.4220
 1.5150	12.5260
 1.5160	12.6310
 1.5170	12.7360
 1.5180	12.8400
 1.5190	12.9430
 1.5200	13.0450
 1.5210	13.1460
 1.5220	13.2490
 1.5230	13.3520
 1.5240	13.4520
 1.5250	13.5530
 1.5260	13.6520
 1.5270	13.7520
 1.5280	13.8540
 1.5290	13.9550
 1.5300	14.0530
 1.5310	14.1510
 1.5320	14.2470
 1.5330	14.3430
 1.5340	14.4380
 1.5350	14.5330
 1.5360	14.6280
 1.5370	14.7220
 1.5380	14.8160
 1.5390	14.9100
 1.5400	15.0020
 1.5410	15.0950
 1.5420	15.1840
 1.5430	15.2740
 1.5440	15.3660
 1.5450	15.4560
 1.5460	15.5470
 1.5470	15.6380
 1.5480	15.7260
 1.5490	15.8160
 1.5500	15.9060
 1.5510	15.9940
 1.5520	16.0820
 1.5530	16.1670
 1.5540	16.2520
 1.5550	16.3370
 1.5560	16.4210
 1.5570	16.5070
 1.5580	16.5910
 1.5590	16.6740
 1.5600	16.7560
 1.5610	16.8350
 1.5620	16.9120
 1.5630	16.9920
 1.5640	17.0720
 1.5650	17.1540
 1.5660	17.2360
 1.5670	17.3190
 1.5680	17.4000
 1.5690	17.4760
 1.5700	17.5520
 1.5710	17.6300
 1.5720	17.7070
 1.5730	17.7850
 1.5740	17.8640
 1.5750	17.9400
 1.5760	18.0150
 1.5770	18.0880
 1.5780	18.1620
 1.5790	18.2340
 1.5800	18.3060
 1.5810	18.3800
 1.5820	18.4540
 1.5830	18.5260
 1.5840	18.5990
 1.5850	18.6710
 1.5860	18.7420
 1.5870	18.8160
 1.5880	18.8850
 1.5890	18.9540
 1.5900	19.0250
 1.5910	19.0920
 1.5920	19.1630
 1.5930	19.2340
 1.5940	19.3010
 1.5950	19.3710
 1.5960	19.4410
 1.5970	19.5100
 1.5980	19.5800
 1.5990	19.6490
 1.6000	19.7150
 1.6010	19.7800
 1.6020	19.8450
 1.6030	19.9090
 1.6040	19.9750
 1.6050	20.0390
 1.6060	20.1020
 1.6070	20.1660
 1.6080	20.2300
 1.6090	20.2920
 1.6100	20.3540
 1.6110	20.4150
 1.6120	20.4770
 1.6130	20.5370
 1.6140	20.5960
 1.6150	20.6540
 1.6160	20.7080
 1.6170	20.7600
 1.6180	20.8130
 1.6190	20.8650
 1.6200	20.9140
 1.6210	20.9650
 1.6220	21.0120
 1.6230	21.0580
 1.6240	21.1070
 1.6250	21.1540
 1.6260	21.2020
 1.6270	21.2520
 1.6280	21.3020
 1.6290	21.3480
 1.6300	21.3940
 1.6310	21.4370
 1.6320	21.4760
 1.6330	21.5170
 1.6340	21.5610
 1.6350	21.6010
 1.6360	21.6420
 1.6370	21.6780
 1.6380	21.7110
 1.6390	21.7450
 1.6400	21.7790
 1.6410	21.8120
 1.6420	21.8470
 1.6430	21.8760
 1.6440	21.9030
 1.6450	21.9240
 1.6460	21.9440
 1.6470	21.9650
 1.6480	21.9840
 1.6490	22.0040
 1.6500	22.0190
 1.6510	22.0320
 1.6520	22.0440
 1.6530	22.0530
 1.6540	22.0610
 1.6550	22.0640
 1.6560	22.0630
 1.6570	22.0570
 1.6580	22.0490
 1.6590	22.0410
 1.6600	22.0320
 1.6610	22.0220
 1.6620	22.0100
 1.6630	21.9990
 1.6640	21.9860
 1.6650	21.9730
 1.6660	21.9630
 1.6670	21.9510
 1.6680	21.9370
 1.6690	21.9220
 1.6700	21.9050
 1.6710	21.8880
 1.6720	21.8720
 1.6730	21.8560
 1.6740	21.8400
 1.6750	21.8130
 1.6760	21.7860
 1.6770	21.7640
 1.6780	21.7350
 1.6790	21.7090
 1.6800	21.6840
 1.6810	21.6490
 1.6820	21.6100
 1.6830	21.5710
 1.6840	21.5300
 1.6850	21.4840
 1.6860	21.4380
 1.6870	21.3900
 1.6880	21.3380
 1.6890	21.2880
 1.6900	21.2390
 1.6910	21.1900
 1.6920	21.1410
 1.6930	21.0900
 1.6940	21.0400
 1.6950	20.9910
 1.6960	20.9430
 1.6970	20.8970
 1.6980	20.8480
 1.6990	20.7930
 1.7000	20.7430
 1.7010	20.6920
 1.7020	20.6390
 1.7030	20.5890
 1.7040	20.5360
 1.7050	20.4800
 1.7060	20.4250
 1.7070	20.3690
 1.7080	20.3160
 1.7090	20.2620
 1.7100	20.2080
 1.7110	20.1560
 1.7120	20.1040
 1.7130	20.0520
 1.7140	20.0020
 1.7150	19.9510
 1.7160	19.9010
 1.7170	19.8510
 1.7180	19.7990
 1.7190	19.7480
 1.7200	19.6960
 1.7210	19.6440
 1.7220	19.5910
 1.7230	19.5390
 1.7240	19.4870
 1.7250	19.4370
 1.7260	19.3890
 1.7270	19.3440
 1.7280	19.3010
 1.7290	19.2560
 1.7300	19.2100
 1.7310	19.1680
 1.7320	19.1250
 1.7330	19.0850
 1.7340	19.0530
 1.7350	19.0150
 1.7360	18.9780
 1.7370	18.9380
 1.7380	18.8950
 1.7390	18.8530
 1.7400	18.8120
 1.7410	18.7670
 1.7420	18.7200
 1.7430	18.6700
 1.7440	18.6150
 1.7450	18.5590
 1.7460	18.5000
 1.7470	18.4430
 1.7480	18.3850
 1.7490	18.3260
 1.7500	18.2700
 1.7510	18.2090
 1.7520	18.1430
 1.7530	18.0810
 1.7540	18.0170
 1.7550	17.9540
 1.7560	17.8940
 1.7570	17.8340
 1.7580	17.7740
 1.7590	17.7190
 1.7600	17.6630
 1.7610	17.6060
 1.7620	17.5520
 1.7630	17.4960
 1.7640	17.4440
 1.7650	17.3950
 1.7660	17.3470
 1.7670	17.3010
 1.7680	17.2570
 1.7690	17.2150
 1.7700	17.1750
 1.7710	17.1360
 1.7720	17.1000
 1.7730	17.0660
 1.7740	17.0300
 1.7750	16.9960
 1.7760	16.9630
 1.7770	16.9300
 1.7780	16.8990
 1.7790	16.8710
 1.7800	16.8420
 1.7810	16.8130
 1.7820	16.7890
 1.7830	16.7680
 1.7840	16.7510
 1.7850	16.7390
 1.7860	16.7270
 1.7870	16.7170
 1.7880	16.7080
 1.7890	16.7000
 1.7900	16.6940
 1.7910	16.6880
 1.7920	16.6770
 1.7930	16.6740
 1.7940	16.6770
 1.7950	16.6770
 1.7960	16.6820
 1.7970	16.6860
 1.7980	16.6840
 1.7990	16.6880
 1.8000	16.6990
 1.8010	16.7040
 1.8020	16.7070
 1.8030	16.7110
 1.8040	16.7130
 1.8050	16.7170
 1.8060	16.7230
 1.8070	16.7280
 1.8080	16.7320
 1.8090	16.7350
 1.8100	16.7400
 1.8110	16.7410
 1.8120	16.7420
 1.8130	16.7460
 1.8140	16.7470
 1.8150	16.7530
 1.8160	16.7580
 1.8170	16.7570
 1.8180	16.7580
 1.8190	16.7570
 1.8200	16.7550
 1.8210	16.7520
 1.8220	16.7490
 1.8230	16.7450
 1.8240	16.7380
 1.8250	16.7320
 1.8260	16.7230
 1.8270	16.6590
 1.8280	16.5950
 1.8290	16.5320
 1.8300	16.4680
 1.8310	16.4040
 1.8320	16.3400
 1.8330	16.2770
 1.8340	16.2130
 1.8350	16.2130
 1.8360	16.1720
 1.8370	16.1280
 1.8380	16.0800
 1.8390	16.0260
 1.8400	15.9670
 1.8410	15.9030
 1.8420	15.8330
 1.8430	15.7540
 1.8440	15.6690
 1.8450	15.5780
 1.8460	15.4840
 1.8470	15.3840
 1.8480	15.2780
 1.8490	15.1660
 1.8500	15.0370
 1.8510	14.8950
 1.8520	14.7440
 1.8530	14.5830
 1.8540	14.4110
 1.8550	14.2370
 1.8560	14.0530
 1.8570	13.8500
 1.8580	13.6370
 1.8590	13.4200
 1.8600	13.1940
 1.8610	12.9520
 1.8620	12.7020
 1.8630	12.4470
 1.8640	12.1710
 1.8650	11.8810
 1.8660	11.5890
 1.8670	11.2800
 1.8680	10.9580
 1.8690	10.6290
 1.8700	10.2940
 1.8710	 9.9500
 1.8720	 9.6040
 1.8730	 9.2520
 1.8740	 8.8990
 1.8750	 8.5450
 1.8760	 8.1890
 1.8770	 7.8430
 1.8780	 7.5080
 1.8790	 7.1790
 1.8800	 6.8600
 1.8810	 6.5500
 1.8820	 6.2460
 1.8830	 5.9490
 1.8840	 5.6650
 1.8850	 5.3920
 1.8860	 5.1330
 1.8870	 4.8880
 1.8880	 4.6490
 1.8890	 4.4220
 1.8900	 4.2130
 1.8910	 4.0190
 1.8920	 3.8390
 1.8930	 3.6770
 1.8940	 3.5320
 1.8950	 3.3950
 1.8960	 3.2720
 1.8970	 3.1640
 1.8980	 3.0610
 1.8990	 2.9690
 1.9000	 2.8880
 1.9010	 2.8190
 1.9020	 2.7540
 1.9030	 2.6980
 1.9040	 2.6500
 1.9050	 2.6070
 1.9060	 2.5670
 1.9070	 2.5320
 1.9080	 2.5030
 1.9090	 2.4760
 1.9100	 2.4500
 1.9110	 2.4290
 1.9120	 2.4120
 1.9130	 2.3970
 1.9140	 2.3850
 1.9150	 2.3780
 1.9160	 2.3640
 1.9170	 2.3570
 1.9180	 2.3490
 1.9190	 2.3370
 1.9200	 2.3330
 1.9210	 2.3280
 1.9220	 2.3250
 1.9230	 2.3240
 1.9240	 2.3220
 1.9250	 2.3190
 1.9260	 2.3190
 1.9270	 2.3200
 1.9280	 2.3230
 1.9290	 2.3300
 1.9300	 2.3340
 1.9310	 2.3380
 1.9320	 2.3430
 1.9330	 2.3490
 1.9340	 2.3570
 1.9350	 2.3630
 1.9360	 2.3700
 1.9370	 2.3770
 1.9380	 2.3810
 1.9390	 2.3850
 1.9400	 2.3930
 1.9410	 2.4030
 1.9420	 2.4100
 1.9430	 2.4180
 1.9440	 2.4280
 1.9450	 2.4370
 1.9460	 2.4500
 1.9470	 2.4680
 1.9480	 2.4820
 1.9490	 2.4960
 1.9500	 2.5090
 1.9510	 2.5200
 1.9520	 2.5310
 1.9530	 2.5440
 1.9540	 2.5620
 1.9550	 2.5780
 1.9560	 2.5970
 1.9570	 2.6130
 1.9580	 2.6290
 1.9590	 2.6440
 1.9600	 2.6590
 1.9610	 2.6750
 1.9620	 2.6930
 1.9630	 2.7120
 1.9640	 2.7310
 1.9650	 2.7480
 1.9660	 2.7650
 1.9670	 2.7820
 1.9680	 2.8020
 1.9690	 2.8220
 1.9700	 2.8460
 1.9710	 2.8740
 1.9720	 2.8990
 1.9730	 2.9240
 1.9740	 2.9480
 1.9750	 2.9710
 1.9760	 3.0000
 1.9770	 3.0240
 1.9780	 3.0520
 1.9790	 3.0790
 1.9800	 3.1020
 1.9810	 3.1270
 1.9820	 3.1520
 1.9830	 3.1790
 1.9840	 3.2070
 1.9850	 3.2350
 1.9860	 3.2650
 1.9870	 3.2940
 1.9880	 3.3290
 1.9890	 3.3590
 1.9900	 3.3850
 1.9910	 3.4190
 1.9920	 3.4490
 1.9930	 3.4770
 1.9940	 3.5070
 1.9950	 3.5370
 1.9960	 3.5690
 1.9970	 3.5990
 1.9980	 3.6330
 1.9990	 3.6720
 2.0000	 3.7110
 2.0010	 3.7430
 2.0020	 3.7760
 2.0030	 3.8070
 2.0040	 3.8380
 2.0050	 3.8700
 2.0060	 3.9020
 2.0070	 3.9340
 2.0080	 3.9630
 2.0090	 3.9940
 2.0100	 4.0260
 2.0110	 4.0600
 2.0120	 4.0970
 2.0130	 4.1300
 2.0140	 4.1650
 2.0150	 4.2010
 2.0160	 4.2370
 2.0170	 4.2750
 2.0180	 4.3100
 2.0190	 4.3490
 2.0200	 4.3800
 2.0210	 4.4050
 2.0220	 4.4320
 2.0230	 4.4560
 2.0240	 4.4820
 2.0250	 4.5080
 2.0260	 4.5370
 2.0270	 4.5670
 2.0280	 4.5980
 2.0290	 4.6300
 2.0300	 4.6610
 2.0310	 4.6900
 2.0320	 4.7150
 2.0330	 4.7430
 2.0340	 4.7710
 2.0350	 4.7990
 2.0360	 4.8320
 2.0370	 4.8580
 2.0380	 4.8760
 2.0390	 4.9020
 2.0400	 4.9300
 2.0410	 4.9570
 2.0420	 4.9880
 2.0430	 5.0160
 2.0440	 5.0420
 2.0450	 5.0620
 2.0460	 5.0880
 2.0470	 5.1190
 2.0480	 5.1430
 2.0490	 5.1640
 2.0500	 5.1890
 2.0510	 5.2140
 2.0520	 5.2360
 2.0530	 5.2600
 2.0540	 5.2850
 2.0550	 5.3050
 2.0560	 5.3290
 2.0570	 5.3570
 2.0580	 5.3840
 2.0590	 5.4100
 2.0600	 5.4330
 2.0610	 5.4580
 2.0620	 5.4820
 2.0630	 5.5080
 2.0640	 5.5370
 2.0650	 5.5610
 2.0660	 5.5800
 2.0670	 5.6040
 2.0680	 5.6290
 2.0690	 5.6540
 2.0700	 5.6820
 2.0710	 5.7090
 2.0720	 5.7390
 2.0730	 5.7620
 2.0740	 5.7880
 2.0750	 5.8160
 2.0760	 5.8420
 2.0770	 5.8650
 2.0780	 5.8880
 2.0790	 5.9100
 2.0800	 5.9340
 2.0810	 5.9530
 2.0820	 5.9800
 2.0830	 6.0140
 2.0840	 6.0430
 2.0850	 6.0780
 2.0860	 6.1060
 2.0870	 6.1290
 2.0880	 6.1490
 2.0890	 6.1720
 2.0900	 6.1920
 2.0910	 6.2180
 2.0920	 6.2500
 2.0930	 6.2770
 2.0940	 6.3050
 2.0950	 6.3290
 2.0960	 6.3470
 2.0970	 6.3720
 2.0980	 6.4000
 2.0990	 6.4260
 2.1000	 6.4530
 2.1010	 6.4800
 2.1020	 6.5050
 2.1030	 6.5310
 2.1040	 6.5590
 2.1050	 6.5870
 2.1060	 6.6160
 2.1070	 6.6450
 2.1080	 6.6730
 2.1090	 6.7000
 2.1100	 6.7280
 2.1110	 6.7540
 2.1120	 6.7810
 2.1130	 6.8110
 2.1140	 6.8380
 2.1150	 6.8610
 2.1160	 6.8880
 2.1170	 6.9160
 2.1180	 6.9440
 2.1190	 6.9790
 2.1200	 7.0080
 2.1210	 7.0370
 2.1220	 7.0620
 2.1230	 7.0850
 2.1240	 7.1030
 2.1250	 7.1250
 2.1260	 7.1450
 2.1270	 7.1680
 2.1280	 7.1950
 2.1290	 7.2180
 2.1300	 7.2390
 2.1310	 7.2630
 2.1320	 7.2860
 2.1330	 7.3070
 2.1340	 7.3220
 2.1350	 7.3470
 2.1360	 7.3770
 2.1370	 7.4020
 2.1380	 7.4370
 2.1390	 7.4630
 2.1400	 7.4780
 2.1410	 7.4950
 2.1420	 7.5120
 2.1430	 7.5270
 2.1440	 7.5470
 2.1450	 7.5680
 2.1460	 7.5920
 2.1470	 7.6200
 2.1480	 7.6460
 2.1490	 7.6740
 2.1500	 7.6990
 2.1510	 7.7240
 2.1520	 7.7450
 2.1530	 7.7630
 2.1540	 7.7810
 2.1550	 7.7950
 2.1560	 7.8120
 2.1570	 7.8290
 2.1580	 7.8470
 2.1590	 7.8650
 2.1600	 7.8860
 2.1610	 7.9050
 2.1620	 7.9220
 2.1630	 7.9400
 2.1640	 7.9580
 2.1650	 7.9750
 2.1660	 7.9930
 2.1670	 8.0130
 2.1680	 8.0340
 2.1690	 8.0510
 2.1700	 8.0670
 2.1710	 8.0870
 2.1720	 8.1070
 2.1730	 8.1260
 2.1740	 8.1470
 2.1750	 8.1680
 2.1760	 8.1860
 2.1770	 8.2040
 2.1780	 8.2240
 2.1790	 8.2420
 2.1800	 8.2510
 2.1810	 8.2680
 2.1820	 8.2910
 2.1830	 8.3150
 2.1840	 8.3360
 2.1850	 8.3600
 2.1860	 8.3810
 2.1870	 8.3990
 2.1880	 8.4140
 2.1890	 8.4270
 2.1900	 8.4420
 2.1910	 8.4520
 2.1920	 8.4670
 2.1930	 8.4890
 2.1940	 8.5040
 2.1950	 8.5130
 2.1960	 8.5260
 2.1970	 8.5400
 2.1980	 8.5530
 2.1990	 8.5700
 2.2000	 8.5810
 2.2010	 8.5860
 2.2020	 8.5930
 2.2030	 8.5980
 2.2040	 8.6050
 2.2050	 8.6160
 2.2060	 8.6240
 2.2070	 8.6370
 2.2080	 8.6520
 2.2090	 8.6640
 2.2100	 8.6810
 2.2110	 8.6870
 2.2120	 8.6860
 2.2130	 8.6860
 2.2140	 8.6760
 2.2150	 8.6800
 2.2160	 8.6970
 2.2170	 8.6960
 2.2180	 8.6920
 2.2190	 8.6870
 2.2200	 8.6680
 2.2210	 8.6560
 2.2220	 8.6510
 2.2230	 8.6450
 2.2240	 8.6410
 2.2250	 8.6330
 2.2260	 8.6280
 2.2270	 8.6160
 2.2280	 8.5940
 2.2290	 8.5770
 2.2300	 8.5550
 2.2310	 8.5390
 2.2320	 8.5240
 2.2330	 8.5050
 2.2340	 8.4780
 2.2350	 8.4460
 2.2360	 8.4150
 2.2370	 8.3790
 2.2380	 8.3450
 2.2390	 8.3110
 2.2400	 8.2800
 2.2410	 8.2500
 2.2420	 8.2170
 2.2430	 8.1840
 2.2440	 8.1470
 2.2450	 8.1040
 2.2460	 8.0630
 2.2470	 8.0220
 2.2480	 7.9810
 2.2490	 7.9440
 2.2500	 7.9010
 2.2510	 7.8590
 2.2520	 7.8140
 2.2530	 7.7600
 2.2540	 7.7120
 2.2550	 7.6660
 2.2560	 7.6200
 2.2570	 7.5790
 2.2580	 7.5320
 2.2590	 7.4820
 2.2600	 7.4310
 2.2610	 7.3720
 2.2620	 7.3170
 2.2630	 7.2720
 2.2640	 7.2180
 2.2650	 7.1650
 2.2660	 7.1170
 2.2670	 7.0720
 2.2680	 7.0260
 2.2690	 6.9840
 2.2700	 6.9480
 2.2710	 6.9140
 2.2720	 6.8820
 2.2730	 6.8430
 2.2740	 6.8060
 2.2750	 6.7680
 2.2760	 6.7200
 2.2770	 6.6830
 2.2780	 6.6530
 2.2790	 6.6210
 2.2800	 6.5920
 2.2810	 6.5610
 2.2820	 6.5270
 2.2830	 6.5010
 2.2840	 6.4810
 2.2850	 6.4520
 2.2860	 6.4230
 2.2870	 6.3960
 2.2880	 6.3610
 2.2890	 6.3340
 2.2900	 6.3210
 2.2910	 6.3010
 2.2920	 6.2760
 2.2930	 6.2550
 2.2940	 6.2410
 2.2950	 6.2170
 2.2960	 6.1920
 2.2970	 6.1650
 2.2980	 6.1300
 2.2990	 6.0960
 2.3000	 6.0620
 2.3010	 6.0330
 2.3020	 6.0040
 2.3030	 5.9730
 2.3040	 5.9370
 2.3050	 5.9000
 2.3060	 5.8680
 2.3070	 5.8460
 2.3080	 5.8270
 2.3090	 5.8130
 2.3100	 5.8060
 2.3110	 5.7930
 2.3120	 5.7800
 2.3130	 5.7760
 2.3140	 5.7600
 2.3150	 5.7330
 2.3160	 5.7160
 2.3170	 5.7020
 2.3180	 5.6870
 2.3190	 5.6780
 2.3200	 5.6630
 2.3210	 5.6440
 2.3220	 5.6270
 2.3230	 5.6100
 2.3240	 5.5920
 2.3250	 5.5740
 2.3260	 5.5560
 2.3270	 5.5390
 2.3280	 5.5220
 2.3290	 5.5070
 2.3300	 5.4870
 2.3310	 5.4690
 2.3320	 5.4420
 2.3330	 5.4040
 2.3340	 5.3770
 2.3350	 5.3440
 2.3360	 5.3180
 2.3370	 5.3030
 2.3380	 5.2860
 2.3390	 5.2780
 2.3400	 5.2580
 2.3410	 5.2330
 2.3420	 5.2080
 2.3430	 5.1690
 2.3440	 5.1380
 2.3450	 5.1110
 2.3460	 5.0870
 2.3470	 5.0640
 2.3480	 5.0460
 2.3490	 5.0360
 2.3500	 5.0190
 2.3510	 5.0030
 2.3520	 4.9830
 2.3530	 4.9480
 2.3540	 4.9350
 2.3550	 4.9180
 2.3560	 4.8950
 2.3570	 4.8880
 2.3580	 4.8690
 2.3590	 4.8440
 2.3600	 4.8260
 2.3610	 4.8080
 2.3620	 4.7800
 2.3630	 4.7510
 2.3640	 4.7360
 2.3650	 4.7190
 2.3660	 4.6970
 2.3670	 4.6840
 2.3680	 4.6680
 2.3690	 4.6390
 2.3700	 4.6220
 2.3710	 4.6040
 2.3720	 4.5850
 2.3730	 4.5710
 2.3740	 4.5550
 2.3750	 4.5370
 2.3760	 4.5100
 2.3770	 4.4890
 2.3780	 4.4650
 2.3790	 4.4320
 2.3800	 4.4150
 2.3810	 4.3880
 2.3820	 4.3500
 2.3830	 4.3390
 2.3840	 4.3220
 2.3850	 4.2980
 2.3860	 4.2850
 2.3870	 4.2590
 2.3880	 4.2380
 2.3890	 4.2320
 2.3900	 4.2180
 2.3910	 4.1900
 2.3920	 4.1590
 2.3930	 4.1330
 2.3940	 4.1040
 2.3950	 4.0940
 2.3960	 4.0920
 2.3970	 4.0510
 2.3980	 4.0180
 2.3990	 3.9900
 2.4000	 3.9570
 2.4010	 3.9490
 2.4020	 3.9470
 2.4030	 3.9340
 2.4040	 3.9010
 2.4050	 3.8740
 2.4060	 3.8360
 2.4070	 3.8100
 2.4080	 3.8210
 2.4090	 3.8080
 2.4100	 3.8000
 2.4110	 3.8000
 2.4120	 3.7720
 2.4130	 3.7620
 2.4140	 3.7610
 2.4150	 3.7310
 2.4160	 3.7100
 2.4170	 3.6720
 2.4180	 3.6290
 2.4190	 3.6070
 2.4200	 3.5690
 2.4210	 3.5330
 2.4220	 3.4980
 2.4230	 3.4480
 2.4240	 3.4220
 2.4250	 3.4170
 2.4260	 3.4100
 2.4270	 3.4090
 2.4280	 3.3950
 2.4290	 3.3650
 2.4300	 3.3460
 2.4310	 3.3150
 2.4320	 3.2750
 2.4330	 3.2630
 2.4340	 3.2480
 2.4350	 3.2430
 2.4360	 3.2610
 2.4370	 3.2580
 2.4380	 3.2370
 2.4390	 3.2150
 2.4400	 3.1980
 2.4410	 3.1710
 2.4420	 3.1530
 2.4430	 3.1440
 2.4440	 3.1040
 2.4450	 3.0720
 2.4460	 3.0530
 2.4470	 3.0500
 2.4480	 3.0790
 2.4490	 3.0660
 2.4500	 3.0390
 2.4510	 3.0110
 2.4520	 2.9390
 2.4530	 2.9020
 2.4540	 2.8990
 2.4550	 2.8890
 2.4560	 2.8990
 2.4570	 2.8730
 2.4580	 2.8270
 2.4590	 2.8200
 2.4600	 2.8010
 2.4610	 2.8210
 2.4620	 2.8650
 2.4630	 2.8200
 2.4640	 2.7430
 2.4650	 2.6790
 2.4660	 2.6360
 2.4670	 2.6620
 2.4680	 2.7280
 2.4690	 2.7520
 2.4700	 2.7510
 2.4710	 2.6850
 2.4720	 2.6490
 2.4730	 2.6280
 2.4740	 2.6380
 2.4750	 2.6840
 2.4760	 2.6900
 2.4770	 2.7130
 2.4780	 2.6940
 2.4790	 2.6170
 2.4800	 2.5580
 2.4810	 2.4860
 2.4820	 2.4050
 2.4830	 2.3510
 2.4840	 2.3490
 2.4850	 2.4330
 2.4860	 2.5340
 2.4870	 2.5630
 2.4880	 2.5640
 2.4890	 2.5680
 2.4900	 2.5060
 2.4910	 2.4630
 2.4920	 2.5450
 2.4930	 2.5410
 2.4940	 2.5080
 2.4950	 2.4860
 2.4960	 2.3360
 2.4970	 2.2850
 2.4980	 2.3280
 2.4990	 2.4390
 2.5000	 2.5780
