Name: Arctostaphylos glandulosa 1
Type: vegetation
Class: Shrub
Genus: Arctostaphylos
Species: glandulosa
Sample No.: VH242
Owner: UCSB
Wavelength Range: VSWIR
Origin: 37.0432; -119.304; WGS84
Collection Date: 11/2/2013
Description: Samples were collected as part of the HyspIRI Airborne Campaign. 48 individual plants were sampled in three times in 2013 - spring  summer  and fall. The name of the sample includes a 1  2  or 3 which references a different individual of the species. Samples were taken to JPL and processed within 48 hours of collection. The same leaves were processed in the Nicolet and then measured using the ASD.
Measurement: Bidirectional reflectance
First Column: X
Second Column: Y
X Units: Wavelength (micrometers)
Y Units: Reflectance (percentage)
First X Value: 0.35
Last X Value: 2.5
Number of X Values: 2151
Additional Information: vegetation.shrub.arctostaphylos.glandulosa.vswir.vh242.ucsb.asd.ancillary.txt

 0.3500	 4.8450
 0.3510	 4.6500
 0.3520	 4.6350
 0.3530	 4.6010
 0.3540	 4.4180
 0.3550	 4.4610
 0.3560	 4.5940
 0.3570	 4.6840
 0.3580	 4.6330
 0.3590	 4.5260
 0.3600	 4.5790
 0.3610	 4.7220
 0.3620	 4.4900
 0.3630	 4.3780
 0.3640	 4.4300
 0.3650	 4.5290
 0.3660	 4.4490
 0.3670	 4.3710
 0.3680	 4.3480
 0.3690	 4.3380
 0.3700	 4.3860
 0.3710	 4.4110
 0.3720	 4.3880
 0.3730	 4.4140
 0.3740	 4.4210
 0.3750	 4.4060
 0.3760	 4.3840
 0.3770	 4.3620
 0.3780	 4.4100
 0.3790	 4.4730
 0.3800	 4.4060
 0.3810	 4.4220
 0.3820	 4.4760
 0.3830	 4.4990
 0.3840	 4.4590
 0.3850	 4.3980
 0.3860	 4.3650
 0.3870	 4.3890
 0.3880	 4.3810
 0.3890	 4.3330
 0.3900	 4.2900
 0.3910	 4.3420
 0.3920	 4.3950
 0.3930	 4.3950
 0.3940	 4.3500
 0.3950	 4.4000
 0.3960	 4.3910
 0.3970	 4.3440
 0.3980	 4.3510
 0.3990	 4.4020
 0.4000	 4.4210
 0.4010	 4.4020
 0.4020	 4.4220
 0.4030	 4.4410
 0.4040	 4.4550
 0.4050	 4.4700
 0.4060	 4.4910
 0.4070	 4.5000
 0.4080	 4.5040
 0.4090	 4.5220
 0.4100	 4.5440
 0.4110	 4.5670
 0.4120	 4.5880
 0.4130	 4.6080
 0.4140	 4.6290
 0.4150	 4.6640
 0.4160	 4.7140
 0.4170	 4.7230
 0.4180	 4.7380
 0.4190	 4.7710
 0.4200	 4.8010
 0.4210	 4.8140
 0.4220	 4.8260
 0.4230	 4.8520
 0.4240	 4.8820
 0.4250	 4.9150
 0.4260	 4.9520
 0.4270	 4.9900
 0.4280	 5.0100
 0.4290	 5.0310
 0.4300	 5.0610
 0.4310	 5.0850
 0.4320	 5.1110
 0.4330	 5.1370
 0.4340	 5.1610
 0.4350	 5.1940
 0.4360	 5.2260
 0.4370	 5.2550
 0.4380	 5.2880
 0.4390	 5.3210
 0.4400	 5.3500
 0.4410	 5.3730
 0.4420	 5.3970
 0.4430	 5.4250
 0.4440	 5.4550
 0.4450	 5.4810
 0.4460	 5.5160
 0.4470	 5.5390
 0.4480	 5.5520
 0.4490	 5.5810
 0.4500	 5.6050
 0.4510	 5.6300
 0.4520	 5.6630
 0.4530	 5.6890
 0.4540	 5.7120
 0.4550	 5.7350
 0.4560	 5.7580
 0.4570	 5.7840
 0.4580	 5.8100
 0.4590	 5.8330
 0.4600	 5.8430
 0.4610	 5.8610
 0.4620	 5.8820
 0.4630	 5.8980
 0.4640	 5.9130
 0.4650	 5.9290
 0.4660	 5.9440
 0.4670	 5.9570
 0.4680	 5.9750
 0.4690	 5.9840
 0.4700	 5.9810
 0.4710	 5.9960
 0.4720	 6.0140
 0.4730	 6.0250
 0.4740	 6.0280
 0.4750	 6.0330
 0.4760	 6.0400
 0.4770	 6.0470
 0.4780	 6.0540
 0.4790	 6.0630
 0.4800	 6.0710
 0.4810	 6.0750
 0.4820	 6.0730
 0.4830	 6.0740
 0.4840	 6.0800
 0.4850	 6.0950
 0.4860	 6.1080
 0.4870	 6.1220
 0.4880	 6.1400
 0.4890	 6.1600
 0.4900	 6.1850
 0.4910	 6.2120
 0.4920	 6.2390
 0.4930	 6.2650
 0.4940	 6.2940
 0.4950	 6.3290
 0.4960	 6.3740
 0.4970	 6.4210
 0.4980	 6.4730
 0.4990	 6.5320
 0.5000	 6.5930
 0.5010	 6.6600
 0.5020	 6.7350
 0.5030	 6.8140
 0.5040	 6.9060
 0.5050	 7.0030
 0.5060	 7.1010
 0.5070	 7.2140
 0.5080	 7.3430
 0.5090	 7.4810
 0.5100	 7.6190
 0.5110	 7.7760
 0.5120	 7.9450
 0.5130	 8.1200
 0.5140	 8.2990
 0.5150	 8.5000
 0.5160	 8.7140
 0.5170	 8.9310
 0.5180	 9.1570
 0.5190	 9.3910
 0.5200	 9.6310
 0.5210	 9.8720
 0.5220	10.1180
 0.5230	10.3660
 0.5240	10.6140
 0.5250	10.8570
 0.5260	11.0960
 0.5270	11.3280
 0.5280	11.5510
 0.5290	11.7610
 0.5300	11.9650
 0.5310	12.1660
 0.5320	12.3580
 0.5330	12.5420
 0.5340	12.7120
 0.5350	12.8680
 0.5360	13.0200
 0.5370	13.1650
 0.5380	13.2990
 0.5390	13.4210
 0.5400	13.5400
 0.5410	13.6560
 0.5420	13.7660
 0.5430	13.8670
 0.5440	13.9690
 0.5450	14.0700
 0.5460	14.1640
 0.5470	14.2530
 0.5480	14.3400
 0.5490	14.4250
 0.5500	14.5020
 0.5510	14.5620
 0.5520	14.6090
 0.5530	14.6470
 0.5540	14.6650
 0.5550	14.6660
 0.5560	14.6510
 0.5570	14.6220
 0.5580	14.5740
 0.5590	14.5100
 0.5600	14.4350
 0.5610	14.3420
 0.5620	14.2480
 0.5630	14.1470
 0.5640	14.0270
 0.5650	13.9100
 0.5660	13.7860
 0.5670	13.6510
 0.5680	13.5070
 0.5690	13.3530
 0.5700	13.2000
 0.5710	13.0540
 0.5720	12.9070
 0.5730	12.7590
 0.5740	12.6140
 0.5750	12.4730
 0.5760	12.3320
 0.5770	12.1980
 0.5780	12.0740
 0.5790	11.9610
 0.5800	11.8610
 0.5810	11.7690
 0.5820	11.6820
 0.5830	11.6000
 0.5840	11.5250
 0.5850	11.4510
 0.5860	11.3770
 0.5870	11.3130
 0.5880	11.2570
 0.5890	11.2040
 0.5900	11.1490
 0.5910	11.0930
 0.5920	11.0410
 0.5930	10.9970
 0.5940	10.9570
 0.5950	10.9220
 0.5960	10.8880
 0.5970	10.8550
 0.5980	10.8180
 0.5990	10.7790
 0.6000	10.7400
 0.6010	10.7040
 0.6020	10.6580
 0.6030	10.6020
 0.6040	10.5440
 0.6050	10.4800
 0.6060	10.4080
 0.6070	10.3320
 0.6080	10.2530
 0.6090	10.1710
 0.6100	10.0860
 0.6110	 9.9930
 0.6120	 9.9060
 0.6130	 9.8230
 0.6140	 9.7420
 0.6150	 9.6620
 0.6160	 9.5840
 0.6170	 9.5080
 0.6180	 9.4390
 0.6190	 9.3760
 0.6200	 9.3200
 0.6210	 9.2710
 0.6220	 9.2270
 0.6230	 9.1900
 0.6240	 9.1630
 0.6250	 9.1430
 0.6260	 9.1190
 0.6270	 9.1040
 0.6280	 9.0980
 0.6290	 9.0900
 0.6300	 9.0810
 0.6310	 9.0740
 0.6320	 9.0640
 0.6330	 9.0470
 0.6340	 9.0240
 0.6350	 8.9900
 0.6360	 8.9440
 0.6370	 8.8860
 0.6380	 8.8150
 0.6390	 8.7340
 0.6400	 8.6460
 0.6410	 8.5490
 0.6420	 8.4480
 0.6430	 8.3450
 0.6440	 8.2380
 0.6450	 8.1260
 0.6460	 8.0150
 0.6470	 7.9120
 0.6480	 7.8180
 0.6490	 7.7370
 0.6500	 7.6680
 0.6510	 7.6040
 0.6520	 7.5490
 0.6530	 7.4980
 0.6540	 7.4480
 0.6550	 7.3970
 0.6560	 7.3420
 0.6570	 7.2800
 0.6580	 7.2080
 0.6590	 7.1260
 0.6600	 7.0390
 0.6610	 6.9510
 0.6620	 6.8640
 0.6630	 6.7770
 0.6640	 6.6930
 0.6650	 6.6170
 0.6660	 6.5500
 0.6670	 6.4900
 0.6680	 6.4360
 0.6690	 6.3910
 0.6700	 6.3550
 0.6710	 6.3270
 0.6720	 6.3060
 0.6730	 6.2930
 0.6740	 6.2830
 0.6750	 6.2770
 0.6760	 6.2780
 0.6770	 6.2840
 0.6780	 6.2940
 0.6790	 6.3120
 0.6800	 6.3370
 0.6810	 6.3700
 0.6820	 6.4190
 0.6830	 6.4880
 0.6840	 6.5770
 0.6850	 6.6890
 0.6860	 6.8330
 0.6870	 7.0190
 0.6880	 7.2460
 0.6890	 7.5280
 0.6900	 7.8700
 0.6910	 8.2750
 0.6920	 8.7570
 0.6930	 9.3100
 0.6940	 9.9300
 0.6950	10.6330
 0.6960	11.4040
 0.6970	12.2340
 0.6980	13.1170
 0.6990	14.0630
 0.7000	15.0570
 0.7010	16.0890
 0.7020	17.1520
 0.7030	18.2440
 0.7040	19.3530
 0.7050	20.4730
 0.7060	21.6120
 0.7070	22.7410
 0.7080	23.8650
 0.7090	24.9980
 0.7100	26.1350
 0.7110	27.2640
 0.7120	28.3860
 0.7130	29.5070
 0.7140	30.6200
 0.7150	31.7230
 0.7160	32.8160
 0.7170	33.8970
 0.7180	34.9630
 0.7190	36.0110
 0.7200	37.0410
 0.7210	38.0580
 0.7220	39.0580
 0.7230	40.0340
 0.7240	40.9790
 0.7250	41.8940
 0.7260	42.7840
 0.7270	43.6490
 0.7280	44.4710
 0.7290	45.2590
 0.7300	46.0150
 0.7310	46.7340
 0.7320	47.4150
 0.7330	48.0770
 0.7340	48.7130
 0.7350	49.2940
 0.7360	49.8390
 0.7370	50.3610
 0.7380	50.8640
 0.7390	51.3330
 0.7400	51.7810
 0.7410	52.2000
 0.7420	52.5870
 0.7430	52.9640
 0.7440	53.3130
 0.7450	53.6310
 0.7460	53.9280
 0.7470	54.2010
 0.7480	54.4550
 0.7490	54.6910
 0.7500	54.9100
 0.7510	55.1120
 0.7520	55.2890
 0.7530	55.4420
 0.7540	55.6030
 0.7550	55.7430
 0.7560	55.8640
 0.7570	55.9930
 0.7580	56.0940
 0.7590	56.1950
 0.7600	56.3030
 0.7610	56.3680
 0.7620	56.4330
 0.7630	56.5050
 0.7640	56.5730
 0.7650	56.6040
 0.7660	56.6510
 0.7670	56.7070
 0.7680	56.7330
 0.7690	56.7670
 0.7700	56.8090
 0.7710	56.8510
 0.7720	56.8680
 0.7730	56.8950
 0.7740	56.9240
 0.7750	56.9430
 0.7760	56.9560
 0.7770	56.9750
 0.7780	56.9980
 0.7790	57.0190
 0.7800	57.0370
 0.7810	57.0450
 0.7820	57.0490
 0.7830	57.0690
 0.7840	57.0930
 0.7850	57.1130
 0.7860	57.1270
 0.7870	57.1370
 0.7880	57.1380
 0.7890	57.1410
 0.7900	57.1590
 0.7910	57.1750
 0.7920	57.1920
 0.7930	57.2080
 0.7940	57.2170
 0.7950	57.2390
 0.7960	57.2540
 0.7970	57.2560
 0.7980	57.2650
 0.7990	57.2800
 0.8000	57.3020
 0.8010	57.3270
 0.8020	57.3270
 0.8030	57.3340
 0.8040	57.3520
 0.8050	57.3740
 0.8060	57.3920
 0.8070	57.3970
 0.8080	57.4020
 0.8090	57.4290
 0.8100	57.4300
 0.8110	57.4390
 0.8120	57.4730
 0.8130	57.4910
 0.8140	57.5030
 0.8150	57.5220
 0.8160	57.5500
 0.8170	57.5550
 0.8180	57.5590
 0.8190	57.5760
 0.8200	57.6080
 0.8210	57.6280
 0.8220	57.6410
 0.8230	57.6510
 0.8240	57.6590
 0.8250	57.6800
 0.8260	57.6880
 0.8270	57.6800
 0.8280	57.6940
 0.8290	57.7100
 0.8300	57.7310
 0.8310	57.7590
 0.8320	57.7660
 0.8330	57.7810
 0.8340	57.7920
 0.8350	57.7790
 0.8360	57.7940
 0.8370	57.8150
 0.8380	57.8360
 0.8390	57.8630
 0.8400	57.8630
 0.8410	57.8720
 0.8420	57.9040
 0.8430	57.9300
 0.8440	57.9710
 0.8450	58.0010
 0.8460	58.0090
 0.8470	58.0270
 0.8480	58.0400
 0.8490	58.0510
 0.8500	58.0680
 0.8510	58.0760
 0.8520	58.0970
 0.8530	58.1320
 0.8540	58.1650
 0.8550	58.1510
 0.8560	58.1430
 0.8570	58.1670
 0.8580	58.2020
 0.8590	58.2200
 0.8600	58.2240
 0.8610	58.2260
 0.8620	58.2410
 0.8630	58.2530
 0.8640	58.2730
 0.8650	58.3020
 0.8660	58.2900
 0.8670	58.2880
 0.8680	58.2930
 0.8690	58.2940
 0.8700	58.3130
 0.8710	58.3310
 0.8720	58.3350
 0.8730	58.3240
 0.8740	58.3280
 0.8750	58.3390
 0.8760	58.3460
 0.8770	58.3380
 0.8780	58.3410
 0.8790	58.3330
 0.8800	58.3210
 0.8810	58.3600
 0.8820	58.3590
 0.8830	58.3460
 0.8840	58.3500
 0.8850	58.3420
 0.8860	58.3330
 0.8870	58.3320
 0.8880	58.3400
 0.8890	58.3390
 0.8900	58.3220
 0.8910	58.2940
 0.8920	58.2740
 0.8930	58.2880
 0.8940	58.3010
 0.8950	58.2990
 0.8960	58.2870
 0.8970	58.2740
 0.8980	58.2500
 0.8990	58.2320
 0.9000	58.2560
 0.9010	58.2460
 0.9020	58.2300
 0.9030	58.2250
 0.9040	58.2060
 0.9050	58.1850
 0.9060	58.1750
 0.9070	58.1760
 0.9080	58.1580
 0.9090	58.1330
 0.9100	58.1230
 0.9110	58.1320
 0.9120	58.1250
 0.9130	58.0960
 0.9140	58.0690
 0.9150	58.0620
 0.9160	58.0470
 0.9170	58.0260
 0.9180	58.0120
 0.9190	58.0140
 0.9200	57.9960
 0.9210	57.9680
 0.9220	57.9350
 0.9230	57.9020
 0.9240	57.8830
 0.9250	57.8630
 0.9260	57.8410
 0.9270	57.8270
 0.9280	57.8000
 0.9290	57.7600
 0.9300	57.7110
 0.9310	57.6590
 0.9320	57.6130
 0.9330	57.5830
 0.9340	57.5590
 0.9350	57.5110
 0.9360	57.4500
 0.9370	57.3840
 0.9380	57.3230
 0.9390	57.2780
 0.9400	57.2230
 0.9410	57.1610
 0.9420	57.0980
 0.9430	57.0340
 0.9440	56.9700
 0.9450	56.9100
 0.9460	56.8410
 0.9470	56.7290
 0.9480	56.6160
 0.9490	56.5100
 0.9500	56.4060
 0.9510	56.2940
 0.9520	56.1830
 0.9530	56.0610
 0.9540	55.9210
 0.9550	55.7900
 0.9560	55.6770
 0.9570	55.5590
 0.9580	55.4220
 0.9590	55.3040
 0.9600	55.2080
 0.9610	55.1280
 0.9620	55.0570
 0.9630	55.0100
 0.9640	54.9720
 0.9650	54.9250
 0.9660	54.8650
 0.9670	54.8200
 0.9680	54.8140
 0.9690	54.8250
 0.9700	54.8190
 0.9710	54.8100
 0.9720	54.7650
 0.9730	54.7230
 0.9740	54.7330
 0.9750	54.7490
 0.9760	54.7710
 0.9770	54.7930
 0.9780	54.8080
 0.9790	54.8280
 0.9800	54.8400
 0.9810	54.8360
 0.9820	54.8240
 0.9830	54.8710
 0.9840	54.9300
 0.9850	54.9840
 0.9860	55.0380
 0.9870	55.0700
 0.9880	55.1150
 0.9890	55.1770
 0.9900	55.2380
 0.9910	55.2860
 0.9920	55.3200
 0.9930	55.3660
 0.9940	55.4490
 0.9950	55.5250
 0.9960	55.5540
 0.9970	55.5810
 0.9980	55.6710
 0.9990	55.7670
 1.0000	55.6360
 1.0010	55.2500
 1.0020	55.1120
 1.0030	55.1680
 1.0040	55.2260
 1.0050	55.2950
 1.0060	55.3600
 1.0070	55.4200
 1.0080	55.4790
 1.0090	55.5320
 1.0100	55.5880
 1.0110	55.6460
 1.0120	55.7040
 1.0130	55.7640
 1.0140	55.8220
 1.0150	55.8780
 1.0160	55.9350
 1.0170	55.9940
 1.0180	56.0510
 1.0190	56.1130
 1.0200	56.1720
 1.0210	56.2270
 1.0220	56.2830
 1.0230	56.3360
 1.0240	56.3870
 1.0250	56.4370
 1.0260	56.4840
 1.0270	56.5310
 1.0280	56.5750
 1.0290	56.6210
 1.0300	56.6710
 1.0310	56.7170
 1.0320	56.7600
 1.0330	56.8060
 1.0340	56.8510
 1.0350	56.8950
 1.0360	56.9410
 1.0370	56.9820
 1.0380	57.0210
 1.0390	57.0540
 1.0400	57.0950
 1.0410	57.1400
 1.0420	57.1810
 1.0430	57.2250
 1.0440	57.2630
 1.0450	57.2960
 1.0460	57.3270
 1.0470	57.3520
 1.0480	57.3810
 1.0490	57.4110
 1.0500	57.4370
 1.0510	57.4630
 1.0520	57.4910
 1.0530	57.5140
 1.0540	57.5330
 1.0550	57.5540
 1.0560	57.5770
 1.0570	57.5960
 1.0580	57.6120
 1.0590	57.6290
 1.0600	57.6440
 1.0610	57.6600
 1.0620	57.6800
 1.0630	57.6920
 1.0640	57.6960
 1.0650	57.7050
 1.0660	57.7110
 1.0670	57.7180
 1.0680	57.7260
 1.0690	57.7380
 1.0700	57.7450
 1.0710	57.7500
 1.0720	57.7540
 1.0730	57.7580
 1.0740	57.7570
 1.0750	57.7480
 1.0760	57.7450
 1.0770	57.7410
 1.0780	57.7350
 1.0790	57.7310
 1.0800	57.7260
 1.0810	57.7180
 1.0820	57.7090
 1.0830	57.7010
 1.0840	57.6890
 1.0850	57.6700
 1.0860	57.6540
 1.0870	57.6380
 1.0880	57.6200
 1.0890	57.6030
 1.0900	57.5910
 1.0910	57.5720
 1.0920	57.5540
 1.0930	57.5310
 1.0940	57.5030
 1.0950	57.4730
 1.0960	57.4380
 1.0970	57.4070
 1.0980	57.3770
 1.0990	57.3480
 1.1000	57.3240
 1.1010	57.2960
 1.1020	57.2670
 1.1030	57.2360
 1.1040	57.2020
 1.1050	57.1670
 1.1060	57.1320
 1.1070	57.0960
 1.1080	57.0610
 1.1090	57.0280
 1.1100	56.9910
 1.1110	56.9550
 1.1120	56.9150
 1.1130	56.8720
 1.1140	56.8270
 1.1150	56.7820
 1.1160	56.7310
 1.1170	56.6810
 1.1180	56.6220
 1.1190	56.5580
 1.1200	56.4890
 1.1210	56.4130
 1.1220	56.3300
 1.1230	56.2420
 1.1240	56.1450
 1.1250	56.0370
 1.1260	55.9240
 1.1270	55.7930
 1.1280	55.6490
 1.1290	55.4920
 1.1300	55.3260
 1.1310	55.1410
 1.1320	54.9420
 1.1330	54.7280
 1.1340	54.4970
 1.1350	54.2540
 1.1360	53.9980
 1.1370	53.7270
 1.1380	53.4420
 1.1390	53.1520
 1.1400	52.8540
 1.1410	52.5580
 1.1420	52.2630
 1.1430	51.9650
 1.1440	51.6700
 1.1450	51.3720
 1.1460	51.0860
 1.1470	50.7990
 1.1480	50.5300
 1.1490	50.2680
 1.1500	50.0250
 1.1510	49.7910
 1.1520	49.5770
 1.1530	49.3790
 1.1540	49.1970
 1.1550	49.0300
 1.1560	48.8790
 1.1570	48.7420
 1.1580	48.6210
 1.1590	48.5140
 1.1600	48.4190
 1.1610	48.3340
 1.1620	48.2570
 1.1630	48.1900
 1.1640	48.1290
 1.1650	48.0770
 1.1660	48.0360
 1.1670	47.9960
 1.1680	47.9650
 1.1690	47.9330
 1.1700	47.9030
 1.1710	47.8730
 1.1720	47.8440
 1.1730	47.8140
 1.1740	47.7850
 1.1750	47.7540
 1.1760	47.7250
 1.1770	47.6940
 1.1780	47.6590
 1.1790	47.6250
 1.1800	47.5880
 1.1810	47.5500
 1.1820	47.5110
 1.1830	47.4700
 1.1840	47.4320
 1.1850	47.3930
 1.1860	47.3550
 1.1870	47.3180
 1.1880	47.2830
 1.1890	47.2480
 1.1900	47.2160
 1.1910	47.1890
 1.1920	47.1620
 1.1930	47.1360
 1.1940	47.1140
 1.1950	47.0940
 1.1960	47.0750
 1.1970	47.0610
 1.1980	47.0500
 1.1990	47.0460
 1.2000	47.0480
 1.2010	47.0550
 1.2020	47.0670
 1.2030	47.0840
 1.2040	47.1050
 1.2050	47.1360
 1.2060	47.1740
 1.2070	47.2170
 1.2080	47.2620
 1.2090	47.3110
 1.2100	47.3630
 1.2110	47.4180
 1.2120	47.4760
 1.2130	47.5390
 1.2140	47.6050
 1.2150	47.6740
 1.2160	47.7480
 1.2170	47.8210
 1.2180	47.8980
 1.2190	47.9760
 1.2200	48.0550
 1.2210	48.1370
 1.2220	48.2190
 1.2230	48.2980
 1.2240	48.3790
 1.2250	48.4590
 1.2260	48.5370
 1.2270	48.6140
 1.2280	48.6890
 1.2290	48.7590
 1.2300	48.8280
 1.2310	48.8950
 1.2320	48.9630
 1.2330	49.0290
 1.2340	49.0930
 1.2350	49.1560
 1.2360	49.2150
 1.2370	49.2700
 1.2380	49.3250
 1.2390	49.3810
 1.2400	49.4320
 1.2410	49.4840
 1.2420	49.5350
 1.2430	49.5840
 1.2440	49.6330
 1.2450	49.6790
 1.2460	49.7200
 1.2470	49.7620
 1.2480	49.8020
 1.2490	49.8380
 1.2500	49.8740
 1.2510	49.9080
 1.2520	49.9390
 1.2530	49.9700
 1.2540	50.0000
 1.2550	50.0260
 1.2560	50.0510
 1.2570	50.0750
 1.2580	50.0970
 1.2590	50.1160
 1.2600	50.1330
 1.2610	50.1490
 1.2620	50.1620
 1.2630	50.1730
 1.2640	50.1820
 1.2650	50.1920
 1.2660	50.1980
 1.2670	50.2000
 1.2680	50.2010
 1.2690	50.1990
 1.2700	50.1930
 1.2710	50.1880
 1.2720	50.1820
 1.2730	50.1700
 1.2740	50.1580
 1.2750	50.1440
 1.2760	50.1270
 1.2770	50.1100
 1.2780	50.0870
 1.2790	50.0640
 1.2800	50.0390
 1.2810	50.0100
 1.2820	49.9820
 1.2830	49.9510
 1.2840	49.9160
 1.2850	49.8770
 1.2860	49.8310
 1.2870	49.7830
 1.2880	49.7290
 1.2890	49.6720
 1.2900	49.6150
 1.2910	49.5560
 1.2920	49.4910
 1.2930	49.4260
 1.2940	49.3550
 1.2950	49.2780
 1.2960	49.1980
 1.2970	49.1140
 1.2980	49.0220
 1.2990	48.9260
 1.3000	48.8270
 1.3010	48.7200
 1.3020	48.6070
 1.3030	48.4920
 1.3040	48.3730
 1.3050	48.2490
 1.3060	48.1210
 1.3070	47.9870
 1.3080	47.8470
 1.3090	47.7050
 1.3100	47.5580
 1.3110	47.4030
 1.3120	47.2430
 1.3130	47.0790
 1.3140	46.9110
 1.3150	46.7410
 1.3160	46.5640
 1.3170	46.3850
 1.3180	46.1980
 1.3190	46.0060
 1.3200	45.8090
 1.3210	45.6050
 1.3220	45.3980
 1.3230	45.1870
 1.3240	44.9730
 1.3250	44.7580
 1.3260	44.5360
 1.3270	44.3090
 1.3280	44.0790
 1.3290	43.8470
 1.3300	43.6150
 1.3310	43.3840
 1.3320	43.1490
 1.3330	42.9130
 1.3340	42.6770
 1.3350	42.4410
 1.3360	42.2060
 1.3370	41.9720
 1.3380	41.7410
 1.3390	41.5100
 1.3400	41.2800
 1.3410	41.0570
 1.3420	40.8360
 1.3430	40.6150
 1.3440	40.3990
 1.3450	40.1840
 1.3460	39.9700
 1.3470	39.7610
 1.3480	39.5560
 1.3490	39.3540
 1.3500	39.1560
 1.3510	38.9590
 1.3520	38.7630
 1.3530	38.5720
 1.3540	38.3810
 1.3550	38.1920
 1.3560	38.0020
 1.3570	37.8080
 1.3580	37.6140
 1.3590	37.4150
 1.3600	37.2130
 1.3610	37.0060
 1.3620	36.7930
 1.3630	36.5730
 1.3640	36.3420
 1.3650	36.1010
 1.3660	35.8520
 1.3670	35.5910
 1.3680	35.3180
 1.3690	35.0340
 1.3700	34.7310
 1.3710	34.4140
 1.3720	34.0840
 1.3730	33.7330
 1.3740	33.3680
 1.3750	32.9830
 1.3760	32.5750
 1.3770	32.1480
 1.3780	31.6950
 1.3790	31.2190
 1.3800	30.7220
 1.3810	30.1980
 1.3820	29.6610
 1.3830	29.1060
 1.3840	28.5360
 1.3850	27.9490
 1.3860	27.3580
 1.3870	26.7480
 1.3880	26.1440
 1.3890	25.5350
 1.3900	24.9250
 1.3910	24.3240
 1.3920	23.7260
 1.3930	23.1320
 1.3940	22.5490
 1.3950	21.9720
 1.3960	21.4100
 1.3970	20.8660
 1.3980	20.3380
 1.3990	19.8360
 1.4000	19.3520
 1.4010	18.8860
 1.4020	18.4460
 1.4030	18.0230
 1.4040	17.6230
 1.4050	17.2460
 1.4060	16.8900
 1.4070	16.5590
 1.4080	16.2480
 1.4090	15.9560
 1.4100	15.6860
 1.4110	15.4320
 1.4120	15.1990
 1.4130	14.9830
 1.4140	14.7830
 1.4150	14.6010
 1.4160	14.4320
 1.4170	14.2750
 1.4180	14.1310
 1.4190	13.9980
 1.4200	13.8770
 1.4210	13.7670
 1.4220	13.6670
 1.4230	13.5770
 1.4240	13.4950
 1.4250	13.4210
 1.4260	13.3540
 1.4270	13.2930
 1.4280	13.2380
 1.4290	13.1900
 1.4300	13.1480
 1.4310	13.1100
 1.4320	13.0800
 1.4330	13.0520
 1.4340	13.0280
 1.4350	13.0080
 1.4360	12.9930
 1.4370	12.9830
 1.4380	12.9760
 1.4390	12.9720
 1.4400	12.9700
 1.4410	12.9700
 1.4420	12.9730
 1.4430	12.9780
 1.4440	12.9850
 1.4450	12.9940
 1.4460	13.0050
 1.4470	13.0170
 1.4480	13.0300
 1.4490	13.0440
 1.4500	13.0580
 1.4510	13.0730
 1.4520	13.0920
 1.4530	13.1110
 1.4540	13.1320
 1.4550	13.1550
 1.4560	13.1790
 1.4570	13.2060
 1.4580	13.2350
 1.4590	13.2660
 1.4600	13.3020
 1.4610	13.3400
 1.4620	13.3810
 1.4630	13.4260
 1.4640	13.4750
 1.4650	13.5280
 1.4660	13.5850
 1.4670	13.6470
 1.4680	13.7130
 1.4690	13.7830
 1.4700	13.8560
 1.4710	13.9320
 1.4720	14.0120
 1.4730	14.0950
 1.4740	14.1810
 1.4750	14.2680
 1.4760	14.3600
 1.4770	14.4520
 1.4780	14.5470
 1.4790	14.6460
 1.4800	14.7440
 1.4810	14.8440
 1.4820	14.9470
 1.4830	15.0500
 1.4840	15.1560
 1.4850	15.2630
 1.4860	15.3710
 1.4870	15.4810
 1.4880	15.5900
 1.4890	15.7000
 1.4900	15.8120
 1.4910	15.9250
 1.4920	16.0400
 1.4930	16.1570
 1.4940	16.2730
 1.4950	16.3900
 1.4960	16.5070
 1.4970	16.6240
 1.4980	16.7410
 1.4990	16.8590
 1.5000	16.9770
 1.5010	17.0970
 1.5020	17.2160
 1.5030	17.3350
 1.5040	17.4540
 1.5050	17.5710
 1.5060	17.6890
 1.5070	17.8080
 1.5080	17.9270
 1.5090	18.0470
 1.5100	18.1660
 1.5110	18.2830
 1.5120	18.4010
 1.5130	18.5170
 1.5140	18.6330
 1.5150	18.7510
 1.5160	18.8680
 1.5170	18.9860
 1.5180	19.1030
 1.5190	19.2200
 1.5200	19.3360
 1.5210	19.4490
 1.5220	19.5620
 1.5230	19.6730
 1.5240	19.7830
 1.5250	19.8930
 1.5260	20.0030
 1.5270	20.1120
 1.5280	20.2230
 1.5290	20.3330
 1.5300	20.4410
 1.5310	20.5490
 1.5320	20.6550
 1.5330	20.7610
 1.5340	20.8660
 1.5350	20.9700
 1.5360	21.0750
 1.5370	21.1780
 1.5380	21.2810
 1.5390	21.3850
 1.5400	21.4860
 1.5410	21.5880
 1.5420	21.6880
 1.5430	21.7880
 1.5440	21.8910
 1.5450	21.9900
 1.5460	22.0910
 1.5470	22.1930
 1.5480	22.2910
 1.5490	22.3900
 1.5500	22.4860
 1.5510	22.5800
 1.5520	22.6750
 1.5530	22.7680
 1.5540	22.8610
 1.5550	22.9540
 1.5560	23.0440
 1.5570	23.1350
 1.5580	23.2250
 1.5590	23.3150
 1.5600	23.4060
 1.5610	23.4940
 1.5620	23.5830
 1.5630	23.6710
 1.5640	23.7570
 1.5650	23.8450
 1.5660	23.9310
 1.5670	24.0160
 1.5680	24.1030
 1.5690	24.1870
 1.5700	24.2700
 1.5710	24.3540
 1.5720	24.4350
 1.5730	24.5170
 1.5740	24.5990
 1.5750	24.6810
 1.5760	24.7630
 1.5770	24.8440
 1.5780	24.9240
 1.5790	25.0050
 1.5800	25.0850
 1.5810	25.1670
 1.5820	25.2480
 1.5830	25.3280
 1.5840	25.4080
 1.5850	25.4870
 1.5860	25.5650
 1.5870	25.6450
 1.5880	25.7240
 1.5890	25.8020
 1.5900	25.8790
 1.5910	25.9540
 1.5920	26.0300
 1.5930	26.1050
 1.5940	26.1820
 1.5950	26.2600
 1.5960	26.3350
 1.5970	26.4090
 1.5980	26.4810
 1.5990	26.5520
 1.6000	26.6240
 1.6010	26.6960
 1.6020	26.7690
 1.6030	26.8410
 1.6040	26.9130
 1.6050	26.9850
 1.6060	27.0540
 1.6070	27.1220
 1.6080	27.1890
 1.6090	27.2550
 1.6100	27.3220
 1.6110	27.3900
 1.6120	27.4570
 1.6130	27.5230
 1.6140	27.5880
 1.6150	27.6510
 1.6160	27.7140
 1.6170	27.7730
 1.6180	27.8320
 1.6190	27.8910
 1.6200	27.9470
 1.6210	28.0020
 1.6220	28.0570
 1.6230	28.1100
 1.6240	28.1590
 1.6250	28.2060
 1.6260	28.2520
 1.6270	28.2980
 1.6280	28.3440
 1.6290	28.3910
 1.6300	28.4400
 1.6310	28.4870
 1.6320	28.5350
 1.6330	28.5810
 1.6340	28.6260
 1.6350	28.6710
 1.6360	28.7180
 1.6370	28.7620
 1.6380	28.8060
 1.6390	28.8460
 1.6400	28.8820
 1.6410	28.9170
 1.6420	28.9500
 1.6430	28.9810
 1.6440	29.0110
 1.6450	29.0360
 1.6460	29.0600
 1.6470	29.0820
 1.6480	29.0990
 1.6490	29.1130
 1.6500	29.1240
 1.6510	29.1330
 1.6520	29.1400
 1.6530	29.1460
 1.6540	29.1520
 1.6550	29.1550
 1.6560	29.1550
 1.6570	29.1510
 1.6580	29.1440
 1.6590	29.1310
 1.6600	29.1200
 1.6610	29.1080
 1.6620	29.0940
 1.6630	29.0810
 1.6640	29.0650
 1.6650	29.0470
 1.6660	29.0310
 1.6670	29.0150
 1.6680	29.0010
 1.6690	28.9850
 1.6700	28.9680
 1.6710	28.9510
 1.6720	28.9320
 1.6730	28.9110
 1.6740	28.8910
 1.6750	28.8670
 1.6760	28.8420
 1.6770	28.8140
 1.6780	28.7820
 1.6790	28.7470
 1.6800	28.7060
 1.6810	28.6630
 1.6820	28.6150
 1.6830	28.5610
 1.6840	28.5050
 1.6850	28.4450
 1.6860	28.3820
 1.6870	28.3180
 1.6880	28.2500
 1.6890	28.1820
 1.6900	28.1080
 1.6910	28.0290
 1.6920	27.9510
 1.6930	27.8680
 1.6940	27.7850
 1.6950	27.7020
 1.6960	27.6200
 1.6970	27.5380
 1.6980	27.4540
 1.6990	27.3700
 1.7000	27.2850
 1.7010	27.1970
 1.7020	27.1090
 1.7030	27.0220
 1.7040	26.9330
 1.7050	26.8430
 1.7060	26.7520
 1.7070	26.6600
 1.7080	26.5680
 1.7090	26.4720
 1.7100	26.3830
 1.7110	26.2970
 1.7120	26.2170
 1.7130	26.1420
 1.7140	26.0700
 1.7150	26.0030
 1.7160	25.9420
 1.7170	25.8840
 1.7180	25.8310
 1.7190	25.7810
 1.7200	25.7340
 1.7210	25.6880
 1.7220	25.6440
 1.7230	25.6040
 1.7240	25.5640
 1.7250	25.5260
 1.7260	25.4910
 1.7270	25.4580
 1.7280	25.4280
 1.7290	25.4020
 1.7300	25.3800
 1.7310	25.3570
 1.7320	25.3360
 1.7330	25.3140
 1.7340	25.2930
 1.7350	25.2680
 1.7360	25.2440
 1.7370	25.2130
 1.7380	25.1780
 1.7390	25.1380
 1.7400	25.0930
 1.7410	25.0450
 1.7420	24.9920
 1.7430	24.9350
 1.7440	24.8740
 1.7450	24.8100
 1.7460	24.7400
 1.7470	24.6710
 1.7480	24.5990
 1.7490	24.5280
 1.7500	24.4570
 1.7510	24.3870
 1.7520	24.3150
 1.7530	24.2480
 1.7540	24.1830
 1.7550	24.1210
 1.7560	24.0610
 1.7570	24.0010
 1.7580	23.9420
 1.7590	23.8870
 1.7600	23.8360
 1.7610	23.7880
 1.7620	23.7410
 1.7630	23.6970
 1.7640	23.6540
 1.7650	23.6120
 1.7660	23.5720
 1.7670	23.5350
 1.7680	23.4990
 1.7690	23.4650
 1.7700	23.4310
 1.7710	23.3980
 1.7720	23.3640
 1.7730	23.3300
 1.7740	23.2970
 1.7750	23.2640
 1.7760	23.2340
 1.7770	23.2090
 1.7780	23.1840
 1.7790	23.1590
 1.7800	23.1390
 1.7810	23.1200
 1.7820	23.1070
 1.7830	23.0990
 1.7840	23.0930
 1.7850	23.0910
 1.7860	23.0870
 1.7870	23.0840
 1.7880	23.0820
 1.7890	23.0830
 1.7900	23.0870
 1.7910	23.0920
 1.7920	23.1000
 1.7930	23.1080
 1.7940	23.1180
 1.7950	23.1280
 1.7960	23.1400
 1.7970	23.1510
 1.7980	23.1650
 1.7990	23.1770
 1.8000	23.1880
 1.8010	23.1970
 1.8020	23.2040
 1.8030	23.2130
 1.8040	23.2220
 1.8050	23.2320
 1.8060	23.2430
 1.8070	23.2520
 1.8080	23.2600
 1.8090	23.2670
 1.8100	23.2740
 1.8110	23.2830
 1.8120	23.2900
 1.8130	23.2940
 1.8140	23.2980
 1.8150	23.3020
 1.8160	23.3070
 1.8170	23.3110
 1.8180	23.3150
 1.8190	23.3160
 1.8200	23.3160
 1.8210	23.3140
 1.8220	23.3110
 1.8230	23.3040
 1.8240	23.2970
 1.8250	23.2880
 1.8260	23.2790
 1.8270	23.2690
 1.8280	23.2560
 1.8290	23.2410
 1.8300	23.3010
 1.8310	23.4560
 1.8320	23.5120
 1.8330	23.4820
 1.8340	23.4520
 1.8350	23.4180
 1.8360	23.3770
 1.8370	23.3350
 1.8380	23.2880
 1.8390	23.2340
 1.8400	23.1750
 1.8410	23.1090
 1.8420	23.0380
 1.8430	22.9590
 1.8440	22.8720
 1.8450	22.7780
 1.8460	22.6770
 1.8470	22.5690
 1.8480	22.4540
 1.8490	22.3270
 1.8500	22.1890
 1.8510	22.0420
 1.8520	21.8800
 1.8530	21.7030
 1.8540	21.5200
 1.8550	21.3240
 1.8560	21.1140
 1.8570	20.9000
 1.8580	20.6700
 1.8590	20.4260
 1.8600	20.1680
 1.8610	19.9000
 1.8620	19.6150
 1.8630	19.3190
 1.8640	19.0080
 1.8650	18.6820
 1.8660	18.3430
 1.8670	17.9840
 1.8680	17.6120
 1.8690	17.2270
 1.8700	16.8290
 1.8710	16.4160
 1.8720	16.0000
 1.8730	15.5760
 1.8740	15.1450
 1.8750	14.7120
 1.8760	14.2720
 1.8770	13.8330
 1.8780	13.3970
 1.8790	12.9610
 1.8800	12.5360
 1.8810	12.1200
 1.8820	11.7040
 1.8830	11.2940
 1.8840	10.8940
 1.8850	10.4990
 1.8860	10.1200
 1.8870	 9.7550
 1.8880	 9.4020
 1.8890	 9.0680
 1.8900	 8.7510
 1.8910	 8.4500
 1.8920	 8.1640
 1.8930	 7.9010
 1.8940	 7.6540
 1.8950	 7.4230
 1.8960	 7.2110
 1.8970	 7.0160
 1.8980	 6.8380
 1.8990	 6.6740
 1.9000	 6.5230
 1.9010	 6.3890
 1.9020	 6.2660
 1.9030	 6.1580
 1.9040	 6.0590
 1.9050	 5.9730
 1.9060	 5.8950
 1.9070	 5.8250
 1.9080	 5.7630
 1.9090	 5.7060
 1.9100	 5.6540
 1.9110	 5.6090
 1.9120	 5.5700
 1.9130	 5.5360
 1.9140	 5.5080
 1.9150	 5.4850
 1.9160	 5.4620
 1.9170	 5.4420
 1.9180	 5.4250
 1.9190	 5.4100
 1.9200	 5.3990
 1.9210	 5.3890
 1.9220	 5.3810
 1.9230	 5.3750
 1.9240	 5.3710
 1.9250	 5.3690
 1.9260	 5.3690
 1.9270	 5.3720
 1.9280	 5.3750
 1.9290	 5.3790
 1.9300	 5.3860
 1.9310	 5.3920
 1.9320	 5.4000
 1.9330	 5.4080
 1.9340	 5.4170
 1.9350	 5.4260
 1.9360	 5.4360
 1.9370	 5.4480
 1.9380	 5.4640
 1.9390	 5.4800
 1.9400	 5.4980
 1.9410	 5.5170
 1.9420	 5.5360
 1.9430	 5.5580
 1.9440	 5.5790
 1.9450	 5.6000
 1.9460	 5.6220
 1.9470	 5.6440
 1.9480	 5.6680
 1.9490	 5.6940
 1.9500	 5.7220
 1.9510	 5.7480
 1.9520	 5.7760
 1.9530	 5.8040
 1.9540	 5.8310
 1.9550	 5.8610
 1.9560	 5.8940
 1.9570	 5.9250
 1.9580	 5.9590
 1.9590	 5.9920
 1.9600	 6.0270
 1.9610	 6.0620
 1.9620	 6.0990
 1.9630	 6.1360
 1.9640	 6.1720
 1.9650	 6.2090
 1.9660	 6.2490
 1.9670	 6.2880
 1.9680	 6.3280
 1.9690	 6.3690
 1.9700	 6.4100
 1.9710	 6.4510
 1.9720	 6.4930
 1.9730	 6.5390
 1.9740	 6.5830
 1.9750	 6.6250
 1.9760	 6.6680
 1.9770	 6.7110
 1.9780	 6.7540
 1.9790	 6.7990
 1.9800	 6.8460
 1.9810	 6.8930
 1.9820	 6.9430
 1.9830	 6.9920
 1.9840	 7.0410
 1.9850	 7.0900
 1.9860	 7.1380
 1.9870	 7.1890
 1.9880	 7.2370
 1.9890	 7.2870
 1.9900	 7.3370
 1.9910	 7.3820
 1.9920	 7.4330
 1.9930	 7.4850
 1.9940	 7.5380
 1.9950	 7.5960
 1.9960	 7.6510
 1.9970	 7.7060
 1.9980	 7.7610
 1.9990	 7.8150
 2.0000	 7.8710
 2.0010	 7.9250
 2.0020	 7.9790
 2.0030	 8.0300
 2.0040	 8.0780
 2.0050	 8.1290
 2.0060	 8.1810
 2.0070	 8.2330
 2.0080	 8.2900
 2.0090	 8.3430
 2.0100	 8.3960
 2.0110	 8.4490
 2.0120	 8.5010
 2.0130	 8.5520
 2.0140	 8.6030
 2.0150	 8.6540
 2.0160	 8.7050
 2.0170	 8.7550
 2.0180	 8.8050
 2.0190	 8.8540
 2.0200	 8.9030
 2.0210	 8.9500
 2.0220	 8.9970
 2.0230	 9.0440
 2.0240	 9.0900
 2.0250	 9.1340
 2.0260	 9.1800
 2.0270	 9.2260
 2.0280	 9.2700
 2.0290	 9.3130
 2.0300	 9.3560
 2.0310	 9.3980
 2.0320	 9.4380
 2.0330	 9.4790
 2.0340	 9.5210
 2.0350	 9.5620
 2.0360	 9.6040
 2.0370	 9.6430
 2.0380	 9.6780
 2.0390	 9.7150
 2.0400	 9.7520
 2.0410	 9.7890
 2.0420	 9.8270
 2.0430	 9.8640
 2.0440	 9.9000
 2.0450	 9.9350
 2.0460	 9.9690
 2.0470	10.0010
 2.0480	10.0340
 2.0490	10.0650
 2.0500	10.0970
 2.0510	10.1260
 2.0520	10.1590
 2.0530	10.1930
 2.0540	10.2280
 2.0550	10.2650
 2.0560	10.3010
 2.0570	10.3370
 2.0580	10.3690
 2.0590	10.4020
 2.0600	10.4320
 2.0610	10.4640
 2.0620	10.4960
 2.0630	10.5300
 2.0640	10.5650
 2.0650	10.5990
 2.0660	10.6340
 2.0670	10.6670
 2.0680	10.7010
 2.0690	10.7330
 2.0700	10.7650
 2.0710	10.7980
 2.0720	10.8310
 2.0730	10.8640
 2.0740	10.8980
 2.0750	10.9320
 2.0760	10.9650
 2.0770	10.9940
 2.0780	11.0260
 2.0790	11.0580
 2.0800	11.0910
 2.0810	11.1250
 2.0820	11.1580
 2.0830	11.1920
 2.0840	11.2250
 2.0850	11.2560
 2.0860	11.2870
 2.0870	11.3160
 2.0880	11.3440
 2.0890	11.3750
 2.0900	11.4070
 2.0910	11.4410
 2.0920	11.4770
 2.0930	11.5130
 2.0940	11.5490
 2.0950	11.5850
 2.0960	11.6220
 2.0970	11.6580
 2.0980	11.6930
 2.0990	11.7300
 2.1000	11.7700
 2.1010	11.8070
 2.1020	11.8440
 2.1030	11.8790
 2.1040	11.9090
 2.1050	11.9400
 2.1060	11.9740
 2.1070	12.0090
 2.1080	12.0430
 2.1090	12.0800
 2.1100	12.1150
 2.1110	12.1500
 2.1120	12.1870
 2.1130	12.2270
 2.1140	12.2640
 2.1150	12.3010
 2.1160	12.3370
 2.1170	12.3710
 2.1180	12.4040
 2.1190	12.4380
 2.1200	12.4710
 2.1210	12.5050
 2.1220	12.5360
 2.1230	12.5670
 2.1240	12.5980
 2.1250	12.6280
 2.1260	12.6570
 2.1270	12.6880
 2.1280	12.7210
 2.1290	12.7520
 2.1300	12.7830
 2.1310	12.8130
 2.1320	12.8390
 2.1330	12.8680
 2.1340	12.8960
 2.1350	12.9240
 2.1360	12.9530
 2.1370	12.9820
 2.1380	13.0120
 2.1390	13.0410
 2.1400	13.0690
 2.1410	13.0980
 2.1420	13.1260
 2.1430	13.1530
 2.1440	13.1810
 2.1450	13.2110
 2.1460	13.2370
 2.1470	13.2630
 2.1480	13.2860
 2.1490	13.3060
 2.1500	13.3280
 2.1510	13.3490
 2.1520	13.3710
 2.1530	13.3940
 2.1540	13.4180
 2.1550	13.4440
 2.1560	13.4690
 2.1570	13.4960
 2.1580	13.5230
 2.1590	13.5520
 2.1600	13.5790
 2.1610	13.6070
 2.1620	13.6340
 2.1630	13.6590
 2.1640	13.6830
 2.1650	13.7060
 2.1660	13.7270
 2.1670	13.7510
 2.1680	13.7790
 2.1690	13.8030
 2.1700	13.8290
 2.1710	13.8520
 2.1720	13.8700
 2.1730	13.8910
 2.1740	13.9140
 2.1750	13.9360
 2.1760	13.9580
 2.1770	13.9810
 2.1780	14.0010
 2.1790	14.0240
 2.1800	14.0520
 2.1810	14.0750
 2.1820	14.0970
 2.1830	14.1170
 2.1840	14.1380
 2.1850	14.1550
 2.1860	14.1770
 2.1870	14.2020
 2.1880	14.2250
 2.1890	14.2500
 2.1900	14.2720
 2.1910	14.2940
 2.1920	14.3140
 2.1930	14.3300
 2.1940	14.3490
 2.1950	14.3670
 2.1960	14.3850
 2.1970	14.4050
 2.1980	14.4220
 2.1990	14.4380
 2.2000	14.4530
 2.2010	14.4660
 2.2020	14.4780
 2.2030	14.4890
 2.2040	14.5010
 2.2050	14.5150
 2.2060	14.5250
 2.2070	14.5330
 2.2080	14.5420
 2.2090	14.5500
 2.2100	14.5560
 2.2110	14.5620
 2.2120	14.5690
 2.2130	14.5740
 2.2140	14.5780
 2.2150	14.5790
 2.2160	14.5800
 2.2170	14.5790
 2.2180	14.5730
 2.2190	14.5700
 2.2200	14.5680
 2.2210	14.5620
 2.2220	14.5570
 2.2230	14.5470
 2.2240	14.5310
 2.2250	14.5150
 2.2260	14.4990
 2.2270	14.4780
 2.2280	14.4540
 2.2290	14.4280
 2.2300	14.3970
 2.2310	14.3640
 2.2320	14.3330
 2.2330	14.3010
 2.2340	14.2650
 2.2350	14.2280
 2.2360	14.1870
 2.2370	14.1420
 2.2380	14.0970
 2.2390	14.0500
 2.2400	14.0040
 2.2410	13.9590
 2.2420	13.9100
 2.2430	13.8610
 2.2440	13.8050
 2.2450	13.7400
 2.2460	13.6800
 2.2470	13.6190
 2.2480	13.5570
 2.2490	13.4950
 2.2500	13.4310
 2.2510	13.3640
 2.2520	13.2940
 2.2530	13.2220
 2.2540	13.1490
 2.2550	13.0730
 2.2560	12.9980
 2.2570	12.9230
 2.2580	12.8480
 2.2590	12.7710
 2.2600	12.6950
 2.2610	12.6180
 2.2620	12.5410
 2.2630	12.4700
 2.2640	12.3990
 2.2650	12.3310
 2.2660	12.2640
 2.2670	12.1980
 2.2680	12.1300
 2.2690	12.0680
 2.2700	12.0080
 2.2710	11.9510
 2.2720	11.8980
 2.2730	11.8460
 2.2740	11.7950
 2.2750	11.7470
 2.2760	11.7010
 2.2770	11.6560
 2.2780	11.6110
 2.2790	11.5680
 2.2800	11.5230
 2.2810	11.4820
 2.2820	11.4450
 2.2830	11.4020
 2.2840	11.3580
 2.2850	11.3140
 2.2860	11.2690
 2.2870	11.2240
 2.2880	11.1810
 2.2890	11.1360
 2.2900	11.0910
 2.2910	11.0440
 2.2920	10.9960
 2.2930	10.9450
 2.2940	10.8880
 2.2950	10.8330
 2.2960	10.7730
 2.2970	10.7190
 2.2980	10.6680
 2.2990	10.6180
 2.3000	10.5690
 2.3010	10.5210
 2.3020	10.4740
 2.3030	10.4310
 2.3040	10.3910
 2.3050	10.3550
 2.3060	10.3210
 2.3070	10.2870
 2.3080	10.2610
 2.3090	10.2390
 2.3100	10.2150
 2.3110	10.1990
 2.3120	10.1900
 2.3130	10.1860
 2.3140	10.1820
 2.3150	10.1880
 2.3160	10.1860
 2.3170	10.1810
 2.3180	10.1740
 2.3190	10.1660
 2.3200	10.1560
 2.3210	10.1440
 2.3220	10.1320
 2.3230	10.1230
 2.3240	10.1040
 2.3250	10.0790
 2.3260	10.0540
 2.3270	10.0220
 2.3280	 9.9930
 2.3290	 9.9640
 2.3300	 9.9320
 2.3310	 9.8950
 2.3320	 9.8640
 2.3330	 9.8350
 2.3340	 9.8050
 2.3350	 9.7810
 2.3360	 9.7510
 2.3370	 9.7170
 2.3380	 9.6850
 2.3390	 9.6490
 2.3400	 9.6160
 2.3410	 9.5880
 2.3420	 9.5550
 2.3430	 9.5200
 2.3440	 9.4880
 2.3450	 9.4550
 2.3460	 9.4230
 2.3470	 9.3940
 2.3480	 9.3670
 2.3490	 9.3410
 2.3500	 9.3160
 2.3510	 9.2950
 2.3520	 9.2740
 2.3530	 9.2510
 2.3540	 9.2350
 2.3550	 9.2210
 2.3560	 9.2100
 2.3570	 9.1960
 2.3580	 9.1770
 2.3590	 9.1550
 2.3600	 9.1320
 2.3610	 9.1130
 2.3620	 9.0940
 2.3630	 9.0640
 2.3640	 9.0370
 2.3650	 9.0140
 2.3660	 8.9840
 2.3670	 8.9660
 2.3680	 8.9490
 2.3690	 8.9220
 2.3700	 8.9000
 2.3710	 8.8760
 2.3720	 8.8480
 2.3730	 8.8210
 2.3740	 8.7880
 2.3750	 8.7610
 2.3760	 8.7370
 2.3770	 8.7110
 2.3780	 8.6880
 2.3790	 8.6590
 2.3800	 8.6220
 2.3810	 8.5880
 2.3820	 8.5590
 2.3830	 8.5340
 2.3840	 8.5120
 2.3850	 8.4870
 2.3860	 8.4600
 2.3870	 8.4340
 2.3880	 8.4080
 2.3890	 8.3880
 2.3900	 8.3730
 2.3910	 8.3500
 2.3920	 8.3180
 2.3930	 8.2860
 2.3940	 8.2500
 2.3950	 8.2220
 2.3960	 8.2040
 2.3970	 8.1860
 2.3980	 8.1670
 2.3990	 8.1440
 2.4000	 8.1200
 2.4010	 8.0880
 2.4020	 8.0570
 2.4030	 8.0300
 2.4040	 7.9930
 2.4050	 7.9650
 2.4060	 7.9370
 2.4070	 7.9060
 2.4080	 7.8830
 2.4090	 7.8580
 2.4100	 7.8280
 2.4110	 7.7910
 2.4120	 7.7610
 2.4130	 7.7460
 2.4140	 7.7210
 2.4150	 7.6970
 2.4160	 7.6740
 2.4170	 7.6380
 2.4180	 7.6060
 2.4190	 7.5830
 2.4200	 7.5620
 2.4210	 7.5270
 2.4220	 7.4950
 2.4230	 7.4640
 2.4240	 7.4190
 2.4250	 7.3900
 2.4260	 7.3560
 2.4270	 7.3230
 2.4280	 7.2980
 2.4290	 7.2570
 2.4300	 7.2170
 2.4310	 7.1860
 2.4320	 7.1590
 2.4330	 7.1290
 2.4340	 7.1040
 2.4350	 7.0780
 2.4360	 7.0320
 2.4370	 6.9870
 2.4380	 6.9560
 2.4390	 6.9230
 2.4400	 6.8940
 2.4410	 6.8800
 2.4420	 6.8710
 2.4430	 6.8460
 2.4440	 6.8140
 2.4450	 6.7800
 2.4460	 6.7370
 2.4470	 6.6960
 2.4480	 6.6600
 2.4490	 6.6360
 2.4500	 6.6140
 2.4510	 6.5920
 2.4520	 6.5940
 2.4530	 6.5770
 2.4540	 6.5320
 2.4550	 6.4940
 2.4560	 6.4380
 2.4570	 6.3980
 2.4580	 6.3850
 2.4590	 6.3550
 2.4600	 6.3140
 2.4610	 6.2670
 2.4620	 6.2400
 2.4630	 6.2330
 2.4640	 6.2310
 2.4650	 6.2310
 2.4660	 6.1930
 2.4670	 6.1460
 2.4680	 6.1300
 2.4690	 6.1040
 2.4700	 6.0910
 2.4710	 6.0880
 2.4720	 6.0650
 2.4730	 6.0450
 2.4740	 6.0260
 2.4750	 5.9990
 2.4760	 5.9850
 2.4770	 5.9800
 2.4780	 5.9610
 2.4790	 5.9280
 2.4800	 5.9070
 2.4810	 5.8930
 2.4820	 5.8910
 2.4830	 5.8840
 2.4840	 5.8810
 2.4850	 5.8410
 2.4860	 5.8210
 2.4870	 5.8120
 2.4880	 5.7740
 2.4890	 5.7670
 2.4900	 5.7430
 2.4910	 5.7260
 2.4920	 5.7540
 2.4930	 5.7900
 2.4940	 5.8170
 2.4950	 5.7770
 2.4960	 5.7350
 2.4970	 5.6990
 2.4980	 5.6550
 2.4990	 5.6450
 2.5000	 5.6330
