Name: Arctostaphylos glandulosa 1
Type: vegetation
Class: Shrub
Genus: Arctostaphylos
Species: glandulosa
Sample No.: VH118
Owner: UCSB
Wavelength Range: TIR
Origin: 34.5084; -119.7682; WGS84
Collection Date: 6/3/2013
Description: Samples were collected as part of the HyspIRI Airborne Campaign. 48 individual plants were sampled in three times in 2013 - spring  summer  and fall. The name of the sample includes a 1  2  or 3 which references a different individual of the species. Samples were taken to JPL and processed within 48 hours of collection. The same leaves were processed in the Nicolet and then measured using the ASD.
Measurement: Hemispherical reflectance
First Column: X
Second Column: Y
X Units: Wavelength (micrometers)
Y Units: Reflectance (percentage)
First X Value: 2.501
Last X Value: 15.387
Number of X Values: 1737
Additional Information: vegetation.shrub.arctostaphylos.glandulosa.tir.vh118.ucsb.nicolet.ancillary.txt

 2.5010	 9.1530
 2.5030	 9.1110
 2.5040	 9.1340
 2.5050	 9.2140
 2.5060	 9.3470
 2.5070	 9.1780
 2.5090	 9.0560
 2.5100	 9.0990
 2.5110	 9.1980
 2.5120	 9.1080
 2.5140	 9.1310
 2.5150	 9.2090
 2.5160	 9.2300
 2.5170	 9.2050
 2.5180	 9.1380
 2.5200	 9.0070
 2.5210	 9.2150
 2.5220	 9.3160
 2.5230	 9.2580
 2.5250	 9.1770
 2.5260	 9.1880
 2.5270	 9.0840
 2.5280	 9.1540
 2.5290	 9.1490
 2.5310	 9.1880
 2.5320	 9.2430
 2.5330	 9.2830
 2.5340	 9.2770
 2.5360	 9.2740
 2.5370	 9.2250
 2.5380	 9.2000
 2.5390	 9.1880
 2.5410	 9.2540
 2.5420	 9.1770
 2.5430	 9.0760
 2.5440	 9.2330
 2.5460	 9.3680
 2.5470	 9.3200
 2.5480	 9.3020
 2.5490	 9.2290
 2.5510	 9.2480
 2.5520	 9.2160
 2.5530	 9.2420
 2.5540	 9.3560
 2.5560	 9.3970
 2.5570	 9.3140
 2.5580	 9.3020
 2.5590	 9.3320
 2.5610	 9.4310
 2.5620	 9.3890
 2.5630	 9.3880
 2.5640	 9.3800
 2.5660	 9.4460
 2.5670	 9.3820
 2.5680	 9.3900
 2.5700	 9.3650
 2.5710	 9.3140
 2.5720	 9.2440
 2.5730	 9.4210
 2.5750	 9.5080
 2.5760	 9.4460
 2.5770	 9.2500
 2.5790	 9.2550
 2.5800	 9.3270
 2.5810	 9.4070
 2.5820	 9.3370
 2.5840	 9.2810
 2.5850	 9.2330
 2.5860	 9.3170
 2.5880	 9.4120
 2.5890	 9.3030
 2.5900	 9.1910
 2.5910	 9.3010
 2.5930	 9.3180
 2.5940	 9.3220
 2.5950	 9.3580
 2.5970	 9.4640
 2.5980	 9.4560
 2.5990	 9.4570
 2.6000	 9.3420
 2.6020	 9.3140
 2.6030	 9.2920
 2.6040	 9.3480
 2.6060	 9.3340
 2.6070	 9.3320
 2.6080	 9.3250
 2.6100	 9.3130
 2.6110	 9.2800
 2.6120	 9.2510
 2.6140	 9.1720
 2.6150	 9.1670
 2.6160	 9.2120
 2.6180	 9.2710
 2.6190	 9.1570
 2.6200	 9.2060
 2.6220	 9.2260
 2.6230	 9.1460
 2.6240	 8.9270
 2.6260	 8.8880
 2.6270	 9.0190
 2.6280	 9.2030
 2.6300	 9.1950
 2.6310	 9.1390
 2.6320	 9.1000
 2.6340	 9.1090
 2.6350	 9.0390
 2.6360	 9.0420
 2.6380	 9.0090
 2.6390	 9.0300
 2.6400	 8.9650
 2.6420	 9.0090
 2.6430	 9.0240
 2.6440	 9.0500
 2.6460	 9.0220
 2.6470	 8.9350
 2.6480	 8.8850
 2.6500	 8.8840
 2.6510	 8.8120
 2.6520	 8.8370
 2.6540	 8.8920
 2.6550	 8.9200
 2.6560	 8.8680
 2.6580	 8.7750
 2.6590	 8.6040
 2.6610	 8.6430
 2.6620	 8.7090
 2.6630	 8.7170
 2.6650	 8.6520
 2.6660	 8.6700
 2.6670	 8.6090
 2.6690	 8.4840
 2.6700	 8.4880
 2.6720	 8.5870
 2.6730	 8.5290
 2.6740	 8.4730
 2.6760	 8.3840
 2.6770	 8.4000
 2.6780	 8.4090
 2.6800	 8.4620
 2.6810	 8.4270
 2.6830	 8.4100
 2.6840	 8.2490
 2.6850	 8.3270
 2.6870	 8.3650
 2.6880	 8.2360
 2.6900	 8.1410
 2.6910	 8.1240
 2.6920	 8.1240
 2.6940	 8.1540
 2.6950	 7.9830
 2.6970	 7.8890
 2.6980	 7.7890
 2.6990	 7.7590
 2.7010	 7.6160
 2.7020	 7.5140
 2.7040	 7.4780
 2.7050	 7.4720
 2.7060	 7.4100
 2.7080	 7.4150
 2.7090	 7.3250
 2.7110	 7.2640
 2.7120	 7.1590
 2.7130	 7.0340
 2.7150	 6.9280
 2.7160	 6.9840
 2.7180	 6.8330
 2.7190	 6.6240
 2.7210	 6.5310
 2.7220	 6.6050
 2.7230	 6.5000
 2.7250	 6.3920
 2.7260	 6.1990
 2.7280	 6.1480
 2.7290	 6.0810
 2.7310	 6.0710
 2.7320	 5.9610
 2.7330	 5.8730
 2.7350	 5.7510
 2.7360	 5.7870
 2.7380	 5.6250
 2.7390	 5.5050
 2.7410	 5.3850
 2.7420	 5.3710
 2.7440	 5.2920
 2.7450	 5.2560
 2.7470	 5.2040
 2.7480	 5.2750
 2.7490	 5.2160
 2.7510	 5.1040
 2.7520	 5.0020
 2.7540	 5.0200
 2.7550	 4.9140
 2.7570	 4.8890
 2.7580	 4.7960
 2.7600	 4.9630
 2.7610	 4.9960
 2.7630	 4.8180
 2.7640	 4.6680
 2.7660	 4.6900
 2.7670	 4.6780
 2.7680	 4.6380
 2.7700	 4.7020
 2.7710	 4.7670
 2.7730	 4.6120
 2.7740	 4.5900
 2.7760	 4.5830
 2.7770	 4.6370
 2.7790	 4.5360
 2.7800	 4.4730
 2.7820	 4.4230
 2.7830	 4.4950
 2.7850	 4.5750
 2.7860	 4.5490
 2.7880	 4.4320
 2.7890	 4.4570
 2.7910	 4.3590
 2.7920	 4.3940
 2.7940	 4.4060
 2.7950	 4.3290
 2.7970	 4.2160
 2.7980	 4.3050
 2.8000	 4.3510
 2.8010	 4.3850
 2.8030	 4.3760
 2.8040	 4.3240
 2.8060	 4.2320
 2.8070	 4.2760
 2.8090	 4.2250
 2.8110	 4.1610
 2.8120	 4.1580
 2.8140	 4.1700
 2.8150	 4.1860
 2.8170	 4.2270
 2.8180	 4.1730
 2.8200	 4.1600
 2.8210	 4.0750
 2.8230	 4.1640
 2.8240	 4.1180
 2.8260	 4.1810
 2.8270	 4.2610
 2.8290	 4.3250
 2.8300	 4.2690
 2.8320	 4.3160
 2.8340	 4.2350
 2.8350	 4.1750
 2.8370	 4.0790
 2.8380	 4.0650
 2.8400	 4.0880
 2.8410	 4.2300
 2.8430	 4.3380
 2.8440	 4.3620
 2.8460	 4.2310
 2.8480	 4.1750
 2.8490	 4.1480
 2.8510	 4.1110
 2.8520	 3.9740
 2.8540	 4.1090
 2.8550	 4.1430
 2.8570	 4.1090
 2.8590	 4.1190
 2.8600	 4.0930
 2.8620	 4.0770
 2.8630	 4.0880
 2.8650	 4.0260
 2.8660	 3.9990
 2.8680	 4.0040
 2.8700	 4.0840
 2.8710	 4.1080
 2.8730	 4.2530
 2.8740	 4.1740
 2.8760	 4.0610
 2.8780	 3.9390
 2.8790	 4.0030
 2.8810	 4.0050
 2.8820	 4.0140
 2.8840	 3.9720
 2.8860	 4.1040
 2.8870	 4.1080
 2.8890	 4.0940
 2.8900	 4.0850
 2.8920	 4.1590
 2.8940	 4.1340
 2.8950	 4.1860
 2.8970	 4.1650
 2.8980	 4.2770
 2.9000	 4.1900
 2.9020	 4.0260
 2.9030	 3.9590
 2.9050	 3.9910
 2.9070	 3.9710
 2.9080	 4.0830
 2.9100	 4.0470
 2.9120	 4.0040
 2.9130	 3.9470
 2.9150	 4.0860
 2.9160	 4.0400
 2.9180	 4.0000
 2.9200	 3.9500
 2.9210	 3.9790
 2.9230	 3.9260
 2.9250	 3.9730
 2.9260	 3.9730
 2.9280	 3.9920
 2.9300	 3.9650
 2.9310	 4.0320
 2.9330	 3.9600
 2.9350	 4.0140
 2.9360	 4.0190
 2.9380	 3.9860
 2.9400	 3.9850
 2.9410	 4.0470
 2.9430	 4.0430
 2.9450	 4.0520
 2.9460	 4.0320
 2.9480	 4.1340
 2.9500	 4.0590
 2.9510	 4.0510
 2.9530	 4.0700
 2.9550	 4.1050
 2.9560	 4.0400
 2.9580	 4.1100
 2.9600	 4.0810
 2.9610	 3.9960
 2.9630	 4.0000
 2.9650	 4.0560
 2.9660	 4.0480
 2.9680	 4.1200
 2.9700	 4.1210
 2.9720	 4.0860
 2.9730	 4.0440
 2.9750	 4.0800
 2.9770	 4.1310
 2.9780	 4.1890
 2.9800	 4.1460
 2.9820	 4.0940
 2.9840	 4.0150
 2.9850	 4.0490
 2.9870	 4.0460
 2.9890	 4.0150
 2.9900	 4.0410
 2.9920	 4.0970
 2.9940	 4.0000
 2.9960	 4.0000
 2.9970	 3.9770
 2.9990	 4.0150
 3.0010	 4.0840
 3.0030	 4.1150
 3.0040	 4.0820
 3.0060	 4.0490
 3.0080	 3.9090
 3.0100	 3.9920
 3.0110	 4.1470
 3.0130	 4.3230
 3.0150	 4.2500
 3.0170	 4.0860
 3.0180	 3.9790
 3.0200	 4.1250
 3.0220	 4.1920
 3.0240	 4.0760
 3.0250	 4.0220
 3.0270	 4.1510
 3.0290	 4.0890
 3.0310	 4.0770
 3.0320	 4.1390
 3.0340	 4.2580
 3.0360	 4.2440
 3.0380	 4.1690
 3.0400	 4.0940
 3.0410	 4.0940
 3.0430	 4.0600
 3.0450	 4.0620
 3.0470	 4.0340
 3.0480	 4.1050
 3.0500	 4.0770
 3.0520	 4.1140
 3.0540	 4.1230
 3.0560	 4.1770
 3.0570	 4.2020
 3.0590	 4.2330
 3.0610	 4.1800
 3.0630	 4.1700
 3.0650	 4.1560
 3.0660	 4.1580
 3.0680	 4.1520
 3.0700	 4.1820
 3.0720	 4.0800
 3.0740	 4.0220
 3.0760	 4.0160
 3.0770	 4.1300
 3.0790	 4.1830
 3.0810	 4.1940
 3.0830	 4.1530
 3.0850	 4.1870
 3.0870	 4.0740
 3.0880	 4.1050
 3.0900	 4.2130
 3.0920	 4.2760
 3.0940	 4.1570
 3.0960	 4.1310
 3.0980	 4.0870
 3.0990	 4.1730
 3.1010	 4.1830
 3.1030	 4.1570
 3.1050	 4.1610
 3.1070	 4.2400
 3.1090	 4.1820
 3.1110	 4.2050
 3.1120	 4.1910
 3.1140	 4.2430
 3.1160	 4.3900
 3.1180	 4.4790
 3.1200	 4.2460
 3.1220	 4.1520
 3.1240	 4.1620
 3.1260	 4.2600
 3.1270	 4.2660
 3.1290	 4.1900
 3.1310	 4.1130
 3.1330	 4.1750
 3.1350	 4.1640
 3.1370	 4.1810
 3.1390	 4.2170
 3.1410	 4.2890
 3.1430	 4.2540
 3.1450	 4.2720
 3.1460	 4.2520
 3.1480	 4.2980
 3.1500	 4.3100
 3.1520	 4.2680
 3.1540	 4.2070
 3.1560	 4.3090
 3.1580	 4.4150
 3.1600	 4.4690
 3.1620	 4.3300
 3.1640	 4.3750
 3.1660	 4.4130
 3.1680	 4.4470
 3.1700	 4.3930
 3.1710	 4.3730
 3.1730	 4.4090
 3.1750	 4.4650
 3.1770	 4.3980
 3.1790	 4.4380
 3.1810	 4.4810
 3.1830	 4.5070
 3.1850	 4.4650
 3.1870	 4.4960
 3.1890	 4.4980
 3.1910	 4.4680
 3.1930	 4.4790
 3.1950	 4.5790
 3.1970	 4.5520
 3.1990	 4.5290
 3.2010	 4.5100
 3.2030	 4.5760
 3.2050	 4.5530
 3.2070	 4.5330
 3.2090	 4.5600
 3.2110	 4.6240
 3.2130	 4.5210
 3.2150	 4.4870
 3.2170	 4.5350
 3.2190	 4.5970
 3.2210	 4.5390
 3.2230	 4.5710
 3.2250	 4.5950
 3.2270	 4.5750
 3.2290	 4.5770
 3.2310	 4.6330
 3.2330	 4.6740
 3.2350	 4.7910
 3.2370	 4.8090
 3.2390	 4.7870
 3.2410	 4.7460
 3.2430	 4.7750
 3.2450	 4.6720
 3.2470	 4.6530
 3.2490	 4.5620
 3.2510	 4.5810
 3.2530	 4.6640
 3.2550	 4.7700
 3.2570	 4.7780
 3.2590	 4.7790
 3.2610	 4.7720
 3.2630	 4.8460
 3.2650	 4.8530
 3.2670	 4.9350
 3.2690	 4.9280
 3.2720	 4.9060
 3.2740	 4.8490
 3.2760	 4.9020
 3.2780	 4.9000
 3.2800	 4.9210
 3.2820	 4.9180
 3.2840	 4.9260
 3.2860	 4.8970
 3.2880	 4.9400
 3.2900	 4.8970
 3.2920	 4.9080
 3.2940	 4.9390
 3.2960	 5.0120
 3.2990	 4.9560
 3.3010	 4.9690
 3.3030	 4.9700
 3.3050	 4.9670
 3.3070	 4.9230
 3.3090	 4.9100
 3.3110	 4.8960
 3.3130	 4.9230
 3.3150	 4.9550
 3.3180	 4.9790
 3.3200	 4.9700
 3.3220	 5.0100
 3.3240	 4.9740
 3.3260	 5.0090
 3.3280	 4.9940
 3.3300	 4.9680
 3.3330	 4.8780
 3.3350	 4.8350
 3.3370	 4.8280
 3.3390	 4.8230
 3.3410	 4.7760
 3.3430	 4.8200
 3.3450	 4.8440
 3.3480	 4.8580
 3.3500	 4.7720
 3.3520	 4.7600
 3.3540	 4.8140
 3.3560	 4.7930
 3.3580	 4.6710
 3.3610	 4.7140
 3.3630	 4.7040
 3.3650	 4.6330
 3.3670	 4.5560
 3.3690	 4.5480
 3.3720	 4.5130
 3.3740	 4.4550
 3.3760	 4.4840
 3.3780	 4.5880
 3.3800	 4.5180
 3.3830	 4.4320
 3.3850	 4.3820
 3.3870	 4.4570
 3.3890	 4.4450
 3.3910	 4.4560
 3.3940	 4.4620
 3.3960	 4.3970
 3.3980	 4.3330
 3.4000	 4.3240
 3.4020	 4.3440
 3.4050	 4.4900
 3.4070	 4.5710
 3.4090	 4.6360
 3.4110	 4.7130
 3.4140	 4.8480
 3.4160	 4.9730
 3.4180	 5.2020
 3.4200	 5.3260
 3.4230	 5.5340
 3.4250	 5.7840
 3.4270	 5.9210
 3.4290	 5.9370
 3.4320	 5.7900
 3.4340	 5.5340
 3.4360	 5.4170
 3.4390	 5.2790
 3.4410	 5.2020
 3.4430	 5.0620
 3.4450	 4.9850
 3.4480	 4.9910
 3.4500	 5.1630
 3.4520	 5.2220
 3.4550	 5.1880
 3.4570	 5.0780
 3.4590	 5.0880
 3.4620	 5.1210
 3.4640	 5.1120
 3.4660	 5.0310
 3.4680	 5.0790
 3.4710	 5.0920
 3.4730	 5.0710
 3.4750	 5.0040
 3.4780	 5.0240
 3.4800	 4.9410
 3.4820	 4.9110
 3.4850	 4.9570
 3.4870	 4.9920
 3.4890	 4.9680
 3.4920	 4.9100
 3.4940	 4.9490
 3.4970	 5.1310
 3.4990	 5.1940
 3.5010	 5.2860
 3.5040	 5.4220
 3.5060	 5.7420
 3.5080	 6.0750
 3.5110	 6.2300
 3.5130	 6.0900
 3.5160	 5.9530
 3.5180	 5.8410
 3.5200	 5.8280
 3.5230	 5.8040
 3.5250	 5.8350
 3.5270	 5.9050
 3.5300	 5.9150
 3.5320	 5.9140
 3.5350	 5.9960
 3.5370	 5.9680
 3.5400	 5.9500
 3.5420	 5.9860
 3.5440	 6.0660
 3.5470	 6.0110
 3.5490	 5.9570
 3.5520	 6.0290
 3.5540	 6.1160
 3.5570	 6.1860
 3.5590	 6.2220
 3.5610	 6.2270
 3.5640	 6.2710
 3.5660	 6.2150
 3.5690	 6.2530
 3.5710	 6.2980
 3.5740	 6.3230
 3.5760	 6.3340
 3.5790	 6.3560
 3.5810	 6.3940
 3.5840	 6.4120
 3.5860	 6.3470
 3.5890	 6.3390
 3.5910	 6.3720
 3.5930	 6.4100
 3.5960	 6.4450
 3.5980	 6.4670
 3.6010	 6.4750
 3.6030	 6.4480
 3.6060	 6.4040
 3.6080	 6.4810
 3.6110	 6.5120
 3.6140	 6.5260
 3.6160	 6.4940
 3.6190	 6.5100
 3.6210	 6.5050
 3.6240	 6.5110
 3.6260	 6.5270
 3.6290	 6.5760
 3.6310	 6.5680
 3.6340	 6.5240
 3.6360	 6.4600
 3.6390	 6.4750
 3.6410	 6.4800
 3.6440	 6.5150
 3.6470	 6.5690
 3.6490	 6.5790
 3.6520	 6.4820
 3.6540	 6.5320
 3.6570	 6.5740
 3.6590	 6.6210
 3.6620	 6.6370
 3.6650	 6.6200
 3.6670	 6.6040
 3.6700	 6.6220
 3.6720	 6.5770
 3.6750	 6.5690
 3.6780	 6.5770
 3.6800	 6.6170
 3.6830	 6.6300
 3.6850	 6.6940
 3.6880	 6.6630
 3.6910	 6.6140
 3.6930	 6.6790
 3.6960	 6.7400
 3.6990	 6.7380
 3.7010	 6.7850
 3.7040	 6.7900
 3.7060	 6.7710
 3.7090	 6.8050
 3.7120	 6.8710
 3.7140	 6.9220
 3.7170	 6.9050
 3.7200	 6.8450
 3.7220	 6.8900
 3.7250	 6.8850
 3.7280	 6.8680
 3.7300	 6.8350
 3.7330	 6.8800
 3.7360	 6.9320
 3.7390	 6.9250
 3.7410	 6.9060
 3.7440	 6.8900
 3.7470	 6.8580
 3.7490	 6.8930
 3.7520	 6.9130
 3.7550	 7.0190
 3.7580	 7.0890
 3.7600	 7.0900
 3.7630	 7.0470
 3.7660	 7.0170
 3.7680	 6.9930
 3.7710	 7.0850
 3.7740	 7.1510
 3.7770	 7.1270
 3.7790	 7.0560
 3.7820	 7.1030
 3.7850	 7.1050
 3.7880	 7.0680
 3.7900	 7.0880
 3.7930	 7.0760
 3.7960	 7.0340
 3.7990	 7.0480
 3.8020	 7.1370
 3.8040	 7.2050
 3.8070	 7.1810
 3.8100	 7.1250
 3.8130	 7.1120
 3.8160	 7.1170
 3.8180	 7.1400
 3.8210	 7.2050
 3.8240	 7.2290
 3.8270	 7.2060
 3.8300	 7.1610
 3.8330	 7.1940
 3.8350	 7.1980
 3.8380	 7.2190
 3.8410	 7.2260
 3.8440	 7.2570
 3.8470	 7.2880
 3.8500	 7.3090
 3.8520	 7.3190
 3.8550	 7.3530
 3.8580	 7.3050
 3.8610	 7.3180
 3.8640	 7.3150
 3.8670	 7.2490
 3.8700	 7.2470
 3.8730	 7.3790
 3.8750	 7.3850
 3.8780	 7.3270
 3.8810	 7.3230
 3.8840	 7.3420
 3.8870	 7.3340
 3.8900	 7.3880
 3.8930	 7.3970
 3.8960	 7.3820
 3.8990	 7.3620
 3.9020	 7.4050
 3.9050	 7.4090
 3.9080	 7.3990
 3.9110	 7.3990
 3.9140	 7.4150
 3.9160	 7.3720
 3.9190	 7.3360
 3.9220	 7.3040
 3.9250	 7.3430
 3.9280	 7.3980
 3.9310	 7.4260
 3.9340	 7.4130
 3.9370	 7.3430
 3.9400	 7.2390
 3.9430	 7.2540
 3.9460	 7.3570
 3.9490	 7.3580
 3.9520	 7.3030
 3.9550	 7.3860
 3.9580	 7.4200
 3.9610	 7.4700
 3.9640	 7.5520
 3.9670	 7.5460
 3.9700	 7.4360
 3.9730	 7.4200
 3.9770	 7.4670
 3.9800	 7.4660
 3.9830	 7.4760
 3.9860	 7.5130
 3.9890	 7.5020
 3.9920	 7.5190
 3.9950	 7.5400
 3.9980	 7.5240
 4.0010	 7.4860
 4.0040	 7.5310
 4.0070	 7.5400
 4.0100	 7.5460
 4.0130	 7.5480
 4.0170	 7.6000
 4.0200	 7.6250
 4.0230	 7.6470
 4.0260	 7.6760
 4.0290	 7.6830
 4.0320	 7.6650
 4.0350	 7.5980
 4.0380	 7.5630
 4.0420	 7.6610
 4.0450	 7.7080
 4.0480	 7.6970
 4.0510	 7.6730
 4.0540	 7.6940
 4.0570	 7.7130
 4.0610	 7.7060
 4.0640	 7.6820
 4.0670	 7.6530
 4.0700	 7.7000
 4.0730	 7.7420
 4.0770	 7.7110
 4.0800	 7.7350
 4.0830	 7.7860
 4.0860	 7.8200
 4.0890	 7.7650
 4.0930	 7.7020
 4.0960	 7.7280
 4.0990	 7.7520
 4.1020	 7.7710
 4.1060	 7.8250
 4.1090	 7.8210
 4.1120	 7.8140
 4.1150	 7.7950
 4.1190	 7.7630
 4.1220	 7.7820
 4.1250	 7.8390
 4.1280	 7.8600
 4.1320	 7.8430
 4.1350	 7.8250
 4.1380	 7.8470
 4.1420	 7.8710
 4.1450	 7.8800
 4.1480	 7.8420
 4.1520	 7.8800
 4.1550	 7.8700
 4.1580	 7.8520
 4.1620	 7.8790
 4.1650	 7.8940
 4.1680	 7.8600
 4.1720	 7.7980
 4.1750	 7.7740
 4.1780	 7.8660
 4.1820	 7.8980
 4.1850	 7.8380
 4.1890	 7.8520
 4.1920	 7.9020
 4.1950	 7.9420
 4.1990	 7.9620
 4.2020	 7.9170
 4.2060	 7.9100
 4.2090	 7.9470
 4.2120	 8.0350
 4.2160	 8.1120
 4.2190	 8.1550
 4.2230	 8.1950
 4.2260	 8.1280
 4.2300	 8.1560
 4.2330	 8.2520
 4.2360	 8.2290
 4.2400	 8.2530
 4.2430	 8.3850
 4.2470	 8.2890
 4.2500	 8.1340
 4.2540	 8.0500
 4.2570	 7.9690
 4.2610	 8.0290
 4.2640	 8.1450
 4.2680	 8.1970
 4.2710	 8.2460
 4.2750	 8.1570
 4.2780	 8.0200
 4.2820	 8.0170
 4.2850	 8.1120
 4.2890	 8.1240
 4.2930	 7.9900
 4.2960	 7.9860
 4.3000	 8.0440
 4.3030	 8.0530
 4.3070	 8.0020
 4.3100	 7.9710
 4.3140	 8.0080
 4.3180	 7.9410
 4.3210	 7.9360
 4.3250	 7.9830
 4.3280	 7.9410
 4.3320	 7.8950
 4.3360	 7.8560
 4.3390	 7.9040
 4.3430	 7.9420
 4.3470	 7.8770
 4.3500	 7.8070
 4.3540	 7.7960
 4.3570	 7.8270
 4.3610	 7.7970
 4.3650	 7.7530
 4.3680	 7.7470
 4.3720	 7.7530
 4.3760	 7.7170
 4.3800	 7.7410
 4.3830	 7.8060
 4.3870	 7.7970
 4.3910	 7.7490
 4.3940	 7.7050
 4.3980	 7.7350
 4.4020	 7.7350
 4.4060	 7.7750
 4.4090	 7.8030
 4.4130	 7.7300
 4.4170	 7.6830
 4.4210	 7.6360
 4.4240	 7.6170
 4.4280	 7.6170
 4.4320	 7.6420
 4.4360	 7.6270
 4.4400	 7.6300
 4.4430	 7.6720
 4.4470	 7.6870
 4.4510	 7.6380
 4.4550	 7.6000
 4.4590	 7.5540
 4.4620	 7.5540
 4.4660	 7.5730
 4.4700	 7.6090
 4.4740	 7.6380
 4.4780	 7.5770
 4.4820	 7.5370
 4.4860	 7.5480
 4.4900	 7.5630
 4.4930	 7.5470
 4.4970	 7.5330
 4.5010	 7.5050
 4.5050	 7.5290
 4.5090	 7.5360
 4.5130	 7.4580
 4.5170	 7.4410
 4.5210	 7.4770
 4.5250	 7.4690
 4.5290	 7.4310
 4.5330	 7.4920
 4.5370	 7.5040
 4.5410	 7.4550
 4.5450	 7.4530
 4.5490	 7.4810
 4.5530	 7.4850
 4.5570	 7.4170
 4.5610	 7.3290
 4.5650	 7.3360
 4.5690	 7.3360
 4.5730	 7.3700
 4.5770	 7.4070
 4.5810	 7.3870
 4.5850	 7.3440
 4.5890	 7.2860
 4.5930	 7.2560
 4.5970	 7.2950
 4.6010	 7.2880
 4.6050	 7.2920
 4.6090	 7.2890
 4.6130	 7.2320
 4.6170	 7.2070
 4.6220	 7.2320
 4.6260	 7.2280
 4.6300	 7.2120
 4.6340	 7.2080
 4.6380	 7.1800
 4.6420	 7.1800
 4.6460	 7.1960
 4.6510	 7.1830
 4.6550	 7.1570
 4.6590	 7.1390
 4.6630	 7.1430
 4.6670	 7.1010
 4.6720	 7.1360
 4.6760	 7.1920
 4.6800	 7.1820
 4.6840	 7.1260
 4.6880	 7.0980
 4.6930	 7.0470
 4.6970	 7.0550
 4.7010	 7.1380
 4.7050	 7.1850
 4.7100	 7.2080
 4.7140	 7.2000
 4.7180	 7.1440
 4.7230	 7.1560
 4.7270	 7.1450
 4.7310	 7.1580
 4.7360	 7.1530
 4.7400	 7.1870
 4.7440	 7.1350
 4.7490	 7.1760
 4.7530	 7.2750
 4.7570	 7.2360
 4.7620	 7.1760
 4.7660	 7.2050
 4.7700	 7.2330
 4.7750	 7.2840
 4.7790	 7.2790
 4.7840	 7.2160
 4.7880	 7.1870
 4.7920	 7.2320
 4.7970	 7.2320
 4.8010	 7.2600
 4.8060	 7.2860
 4.8100	 7.3160
 4.8150	 7.2910
 4.8190	 7.2850
 4.8240	 7.2160
 4.8280	 7.2410
 4.8330	 7.2870
 4.8370	 7.3090
 4.8420	 7.2720
 4.8460	 7.2000
 4.8510	 7.2210
 4.8550	 7.2880
 4.8600	 7.2400
 4.8640	 7.2790
 4.8690	 7.2940
 4.8730	 7.2990
 4.8780	 7.3190
 4.8830	 7.3640
 4.8870	 7.3710
 4.8920	 7.3560
 4.8960	 7.3060
 4.9010	 7.3330
 4.9060	 7.3700
 4.9100	 7.3450
 4.9150	 7.2780
 4.9200	 7.3260
 4.9240	 7.3630
 4.9290	 7.4110
 4.9340	 7.4010
 4.9380	 7.4210
 4.9430	 7.4550
 4.9480	 7.4260
 4.9530	 7.3770
 4.9570	 7.4020
 4.9620	 7.4110
 4.9670	 7.4330
 4.9720	 7.4700
 4.9760	 7.5150
 4.9810	 7.4910
 4.9860	 7.4880
 4.9910	 7.5180
 4.9960	 7.5830
 5.0000	 7.5650
 5.0050	 7.5190
 5.0100	 7.4880
 5.0150	 7.5330
 5.0200	 7.5720
 5.0250	 7.5790
 5.0290	 7.5400
 5.0340	 7.5890
 5.0390	 7.5610
 5.0440	 7.5500
 5.0490	 7.5210
 5.0540	 7.5950
 5.0590	 7.6350
 5.0640	 7.6140
 5.0690	 7.5980
 5.0740	 7.6160
 5.0790	 7.6190
 5.0840	 7.6570
 5.0890	 7.6570
 5.0940	 7.6750
 5.0990	 7.6400
 5.1040	 7.6210
 5.1090	 7.6140
 5.1140	 7.6320
 5.1190	 7.6170
 5.1240	 7.6550
 5.1290	 7.6600
 5.1340	 7.6790
 5.1390	 7.6880
 5.1440	 7.7340
 5.1490	 7.6930
 5.1540	 7.6820
 5.1600	 7.6960
 5.1650	 7.6910
 5.1700	 7.6630
 5.1750	 7.7200
 5.1800	 7.7070
 5.1850	 7.7410
 5.1910	 7.7580
 5.1960	 7.7840
 5.2010	 7.7680
 5.2060	 7.7300
 5.2110	 7.7200
 5.2170	 7.7370
 5.2220	 7.6870
 5.2270	 7.7320
 5.2320	 7.7710
 5.2380	 7.7990
 5.2430	 7.7630
 5.2480	 7.7520
 5.2540	 7.7560
 5.2590	 7.7730
 5.2640	 7.6930
 5.2700	 7.6680
 5.2750	 7.6430
 5.2800	 7.7020
 5.2860	 7.7000
 5.2910	 7.7010
 5.2970	 7.7170
 5.3020	 7.7230
 5.3070	 7.6960
 5.3130	 7.6790
 5.3180	 7.7010
 5.3240	 7.7160
 5.3290	 7.6740
 5.3350	 7.6920
 5.3400	 7.6630
 5.3460	 7.6910
 5.3510	 7.6660
 5.3570	 7.6680
 5.3620	 7.6300
 5.3680	 7.5980
 5.3730	 7.5560
 5.3790	 7.5650
 5.3850	 7.5300
 5.3900	 7.5300
 5.3960	 7.5430
 5.4010	 7.5180
 5.4070	 7.4300
 5.4130	 7.4530
 5.4180	 7.4530
 5.4240	 7.4650
 5.4300	 7.4320
 5.4350	 7.4020
 5.4410	 7.3520
 5.4470	 7.3390
 5.4530	 7.2900
 5.4580	 7.3060
 5.4640	 7.2850
 5.4700	 7.3070
 5.4760	 7.3000
 5.4810	 7.2610
 5.4870	 7.2130
 5.4930	 7.1900
 5.4990	 7.1300
 5.5050	 7.1250
 5.5110	 7.0850
 5.5160	 7.0630
 5.5220	 6.9430
 5.5280	 6.8760
 5.5340	 6.7430
 5.5400	 6.7340
 5.5460	 6.7050
 5.5520	 6.6480
 5.5580	 6.5450
 5.5640	 6.5160
 5.5700	 6.4620
 5.5760	 6.3840
 5.5820	 6.2720
 5.5880	 6.3050
 5.5940	 6.2750
 5.6000	 6.1970
 5.6060	 6.0960
 5.6120	 6.0570
 5.6180	 5.9920
 5.6240	 5.9790
 5.6300	 5.8550
 5.6360	 5.7360
 5.6420	 5.5830
 5.6490	 5.4430
 5.6550	 5.2860
 5.6610	 5.2060
 5.6670	 5.0520
 5.6730	 4.9260
 5.6800	 4.7110
 5.6860	 4.6190
 5.6920	 4.5220
 5.6980	 4.4310
 5.7040	 4.3110
 5.7110	 4.2040
 5.7170	 4.0580
 5.7230	 4.0450
 5.7300	 4.0030
 5.7360	 3.9120
 5.7420	 3.8190
 5.7490	 3.9020
 5.7550	 3.9490
 5.7620	 4.0290
 5.7680	 4.0190
 5.7740	 4.0970
 5.7810	 4.1830
 5.7870	 4.2480
 5.7940	 4.2820
 5.8000	 4.3990
 5.8070	 4.4770
 5.8130	 4.6170
 5.8200	 4.6690
 5.8260	 4.7090
 5.8330	 4.7690
 5.8390	 4.9070
 5.8460	 4.8800
 5.8530	 4.8920
 5.8590	 4.9850
 5.8660	 5.1060
 5.8720	 5.0450
 5.8790	 5.0990
 5.8860	 5.0590
 5.8920	 5.0370
 5.8990	 5.0160
 5.9060	 5.0720
 5.9130	 5.0480
 5.9190	 5.0840
 5.9260	 5.0780
 5.9330	 5.1940
 5.9400	 5.2310
 5.9470	 5.2310
 5.9530	 5.2860
 5.9600	 5.4370
 5.9670	 5.4020
 5.9740	 5.3780
 5.9810	 5.2750
 5.9880	 5.2600
 5.9950	 5.2040
 6.0020	 5.1960
 6.0090	 5.1390
 6.0160	 5.1360
 6.0230	 5.0420
 6.0300	 5.0300
 6.0370	 5.0080
 6.0440	 5.1180
 6.0510	 5.0910
 6.0580	 5.0800
 6.0650	 5.0060
 6.0720	 5.0090
 6.0790	 4.9960
 6.0860	 4.9980
 6.0930	 4.9130
 6.1000	 4.9180
 6.1080	 4.9180
 6.1150	 4.9610
 6.1220	 4.9330
 6.1290	 5.0120
 6.1370	 4.9620
 6.1440	 5.0350
 6.1510	 5.0400
 6.1580	 5.0890
 6.1660	 5.0620
 6.1730	 5.0920
 6.1800	 5.0360
 6.1880	 5.1650
 6.1950	 5.2460
 6.2030	 5.3580
 6.2100	 5.3220
 6.2170	 5.4060
 6.2250	 5.3590
 6.2320	 5.4730
 6.2400	 5.5200
 6.2470	 5.5760
 6.2550	 5.4780
 6.2630	 5.5810
 6.2700	 5.7030
 6.2780	 5.7830
 6.2850	 5.7770
 6.2930	 5.8830
 6.3010	 5.9070
 6.3080	 5.9260
 6.3160	 5.8620
 6.3240	 5.8800
 6.3310	 5.8960
 6.3390	 5.9780
 6.3470	 5.9340
 6.3550	 6.0320
 6.3620	 6.0250
 6.3700	 6.1360
 6.3780	 6.1080
 6.3860	 6.0760
 6.3940	 6.0020
 6.4020	 6.1040
 6.4100	 6.0710
 6.4180	 6.0290
 6.4260	 5.9280
 6.4330	 5.9800
 6.4410	 5.9630
 6.4490	 6.0650
 6.4580	 6.1120
 6.4660	 6.1240
 6.4740	 6.0230
 6.4820	 6.0400
 6.4900	 6.0160
 6.4980	 6.0560
 6.5060	 6.0230
 6.5140	 6.0430
 6.5230	 5.9840
 6.5310	 5.9640
 6.5390	 5.8740
 6.5470	 5.8810
 6.5550	 5.8040
 6.5640	 5.8010
 6.5720	 5.6940
 6.5800	 5.6330
 6.5890	 5.5990
 6.5970	 5.7890
 6.6060	 5.7850
 6.6140	 5.7720
 6.6220	 5.7210
 6.6310	 5.8300
 6.6390	 5.8910
 6.6480	 5.9040
 6.6560	 5.8050
 6.6650	 5.8010
 6.6740	 5.7520
 6.6820	 5.7520
 6.6910	 5.7130
 6.6990	 5.6890
 6.7080	 5.5580
 6.7170	 5.5570
 6.7260	 5.4910
 6.7340	 5.4590
 6.7430	 5.3130
 6.7520	 5.2440
 6.7610	 5.1030
 6.7690	 5.1250
 6.7780	 4.9820
 6.7870	 4.9030
 6.7960	 4.7360
 6.8050	 4.6660
 6.8140	 4.6230
 6.8230	 4.6800
 6.8320	 4.6680
 6.8410	 4.7760
 6.8500	 4.7950
 6.8590	 4.8440
 6.8680	 4.7660
 6.8770	 4.8300
 6.8860	 4.8140
 6.8950	 4.8790
 6.9050	 4.8170
 6.9140	 4.8970
 6.9230	 4.8300
 6.9320	 4.7600
 6.9420	 4.6550
 6.9510	 4.7200
 6.9600	 4.6840
 6.9700	 4.6730
 6.9790	 4.6240
 6.9880	 4.6850
 6.9980	 4.6260
 7.0070	 4.6640
 7.0170	 4.6870
 7.0260	 4.7530
 7.0360	 4.6740
 7.0450	 4.7700
 7.0550	 4.7370
 7.0650	 4.7580
 7.0740	 4.7800
 7.0840	 4.9450
 7.0940	 4.8760
 7.1030	 4.8710
 7.1130	 4.8190
 7.1230	 4.8980
 7.1330	 4.8330
 7.1420	 4.8630
 7.1520	 4.7090
 7.1620	 4.7160
 7.1720	 4.6060
 7.1820	 4.6230
 7.1920	 4.4680
 7.2020	 4.4240
 7.2120	 4.3210
 7.2220	 4.3600
 7.2320	 4.3340
 7.2420	 4.3010
 7.2520	 4.2180
 7.2620	 4.2900
 7.2730	 4.2370
 7.2830	 4.3260
 7.2930	 4.3460
 7.3030	 4.3860
 7.3140	 4.3260
 7.3240	 4.3620
 7.3340	 4.3170
 7.3450	 4.4560
 7.3550	 4.4740
 7.3660	 4.5670
 7.3760	 4.5620
 7.3870	 4.6730
 7.3970	 4.6040
 7.4080	 4.6000
 7.4180	 4.5010
 7.4290	 4.5030
 7.4400	 4.4960
 7.4500	 4.5850
 7.4610	 4.4800
 7.4720	 4.5120
 7.4830	 4.4830
 7.4930	 4.5090
 7.5040	 4.3670
 7.5150	 4.3860
 7.5260	 4.2960
 7.5370	 4.3340
 7.5480	 4.2900
 7.5590	 4.3600
 7.5700	 4.3380
 7.5810	 4.3710
 7.5920	 4.3510
 7.6030	 4.4290
 7.6140	 4.3240
 7.6260	 4.3940
 7.6370	 4.3120
 7.6480	 4.3550
 7.6590	 4.3510
 7.6710	 4.5000
 7.6820	 4.4790
 7.6930	 4.5050
 7.7050	 4.4530
 7.7160	 4.5190
 7.7280	 4.4280
 7.7390	 4.3950
 7.7510	 4.3110
 7.7630	 4.4510
 7.7740	 4.3700
 7.7860	 4.3340
 7.7980	 4.1420
 7.8090	 4.1540
 7.8210	 4.1090
 7.8330	 4.1300
 7.8450	 4.0540
 7.8570	 4.1490
 7.8690	 4.1320
 7.8810	 4.1950
 7.8930	 4.0640
 7.9050	 4.1050
 7.9170	 3.9980
 7.9290	 4.0570
 7.9410	 4.0050
 7.9530	 4.1210
 7.9650	 4.0750
 7.9780	 4.1630
 7.9900	 4.0430
 8.0020	 4.1170
 8.0150	 4.1200
 8.0270	 4.2250
 8.0390	 4.1060
 8.0520	 4.1320
 8.0640	 4.0370
 8.0770	 4.1920
 8.0900	 4.2300
 8.1020	 4.3490
 8.1150	 4.2910
 8.1280	 4.4620
 8.1400	 4.3490
 8.1530	 4.4270
 8.1660	 4.4350
 8.1790	 4.5460
 8.1920	 4.3740
 8.2050	 4.5300
 8.2180	 4.3910
 8.2310	 4.4680
 8.2440	 4.5330
 8.2570	 4.6330
 8.2700	 4.4810
 8.2830	 4.5200
 8.2970	 4.3870
 8.3100	 4.5650
 8.3230	 4.5790
 8.3370	 4.7140
 8.3500	 4.7420
 8.3640	 4.8680
 8.3770	 4.5740
 8.3910	 4.5580
 8.4040	 4.4520
 8.4180	 4.5590
 8.4320	 4.4770
 8.4450	 4.5440
 8.4590	 4.3630
 8.4730	 4.4680
 8.4870	 4.3980
 8.5010	 4.4620
 8.5150	 4.2990
 8.5290	 4.4710
 8.5430	 4.3140
 8.5570	 4.3710
 8.5710	 4.3400
 8.5850	 4.6270
 8.5990	 4.5560
 8.6140	 4.6130
 8.6280	 4.5490
 8.6420	 4.6530
 8.6570	 4.6200
 8.6710	 4.7830
 8.6860	 4.7490
 8.7000	 4.8330
 8.7150	 4.6440
 8.7300	 4.7210
 8.7440	 4.5340
 8.7590	 4.6580
 8.7740	 4.5660
 8.7890	 4.5630
 8.8040	 4.4240
 8.8190	 4.5000
 8.8340	 4.3730
 8.8490	 4.4100
 8.8640	 4.3600
 8.8790	 4.4880
 8.8940	 4.3570
 8.9100	 4.4730
 8.9250	 4.2960
 8.9400	 4.3840
 8.9560	 4.2050
 8.9710	 4.3380
 8.9870	 4.3410
 9.0020	 4.5050
 9.0180	 4.2820
 9.0340	 4.3410
 9.0500	 4.2460
 9.0650	 4.2970
 9.0810	 4.2280
 9.0970	 4.5470
 9.1130	 4.4780
 9.1290	 4.4550
 9.1450	 4.3010
 9.1610	 4.4970
 9.1780	 4.4100
 9.1940	 4.4930
 9.2100	 4.3150
 9.2270	 4.3480
 9.2430	 4.1010
 9.2600	 4.2320
 9.2760	 4.1870
 9.2930	 4.3170
 9.3090	 4.1660
 9.3260	 4.3460
 9.3430	 4.2900
 9.3600	 4.5240
 9.3770	 4.3890
 9.3940	 4.4140
 9.4110	 4.1330
 9.4280	 4.3740
 9.4450	 4.4350
 9.4620	 4.6500
 9.4800	 4.5620
 9.4970	 4.6960
 9.5140	 4.4860
 9.5320	 4.6960
 9.5500	 4.7530
 9.5670	 4.9010
 9.5850	 4.6280
 9.6030	 4.6710
 9.6200	 4.6360
 9.6380	 4.9550
 9.6560	 4.7910
 9.6740	 4.8950
 9.6920	 4.8550
 9.7100	 4.9760
 9.7290	 4.8200
 9.7470	 4.9350
 9.7650	 4.7730
 9.7840	 4.9470
 9.8020	 4.8060
 9.8210	 4.9790
 9.8390	 4.9940
 9.8580	 5.0870
 9.8770	 4.8460
 9.8960	 4.8610
 9.9150	 4.7110
 9.9340	 4.8820
 9.9530	 4.6970
 9.9720	 4.8010
 9.9910	 4.7520
10.0100	 4.9320
10.0300	 4.7150
10.0490	 4.9050
10.0690	 5.0020
10.0880	 5.1090
10.1080	 4.8530
10.1280	 4.9770
10.1480	 4.9690
10.1670	 5.1140
10.1870	 5.0420
10.2070	 5.2810
10.2280	 5.2070
10.2480	 5.3000
10.2680	 5.1890
10.2890	 5.3180
10.3090	 5.2850
10.3300	 5.4840
10.3500	 5.4360
10.3710	 5.6000
10.3920	 5.5760
10.4120	 5.7970
10.4330	 5.7660
10.4540	 5.9550
10.4760	 5.9320
10.4970	 6.0950
10.5180	 5.9570
10.5390	 6.1110
10.5610	 5.9940
10.5820	 6.0930
10.6040	 5.9770
10.6260	 6.1610
10.6480	 6.0670
10.6700	 6.2080
10.6920	 5.9270
10.7140	 6.0350
10.7360	 6.0550
10.7580	 6.2290
10.7800	 5.9840
10.8030	 6.0330
10.8250	 5.8540
10.8480	 5.9820
10.8710	 5.8690
10.8940	 6.0300
10.9170	 5.7850
10.9400	 5.8640
10.9630	 5.7460
10.9860	 5.9350
11.0090	 5.7890
11.0330	 5.8350
11.0560	 5.5750
11.0800	 5.5290
11.1040	 5.3240
11.1270	 5.4690
11.1510	 5.3400
11.1750	 5.6760
11.2000	 5.6760
11.2240	 5.8750
11.2480	 5.8230
11.2730	 5.9860
11.2970	 5.7310
11.3220	 5.8640
11.3470	 5.7540
11.3720	 5.8470
11.3970	 5.6020
11.4220	 5.8190
11.4470	 5.7450
11.4720	 5.9800
11.4980	 5.7630
11.5230	 5.9600
11.5490	 5.8090
11.5750	 5.8490
11.6000	 5.5970
11.6260	 5.8060
11.6530	 5.6410
11.6790	 5.6710
11.7050	 5.4100
11.7320	 5.5820
11.7580	 5.3540
11.7850	 5.5540
11.8120	 5.2860
11.8390	 5.3490
11.8660	 5.2520
11.8930	 5.5650
11.9200	 5.3230
11.9480	 5.3690
11.9760	 5.2440
12.0030	 5.5530
12.0310	 5.2970
12.0590	 5.4540
12.0870	 5.2980
12.1150	 5.4980
12.1440	 5.2130
12.1720	 5.3220
12.2010	 5.1940
12.2300	 5.3990
12.2590	 5.2090
12.2880	 5.4200
12.3170	 5.2560
12.3460	 5.3210
12.3760	 5.1200
12.4050	 5.3140
12.4350	 5.1180
12.4650	 5.4550
12.4950	 5.1060
12.5250	 5.2440
12.5550	 5.2010
12.5860	 5.3650
12.6170	 5.1070
12.6470	 5.2850
12.6780	 4.9090
12.7090	 4.9850
12.7410	 4.7710
12.7720	 5.1550
12.8030	 4.9300
12.8350	 5.0100
12.8670	 4.7270
12.8990	 4.9750
12.9310	 4.7810
12.9640	 4.9510
12.9960	 4.7920
13.0290	 5.0180
13.0610	 4.7280
13.0940	 4.9880
13.1280	 4.7050
13.1610	 4.9030
13.1940	 4.7460
13.2280	 4.6450
13.2620	 4.3880
13.2960	 4.8420
13.3300	 4.6430
13.3640	 4.8800
13.3990	 4.5640
13.4340	 4.8770
13.4690	 4.6170
13.5040	 4.7340
13.5390	 4.4550
13.5740	 4.7100
13.6100	 4.4300
13.6460	 4.7030
13.6820	 4.5240
13.7180	 4.9380
13.7540	 4.6130
13.7910	 4.8560
13.8280	 4.6090
13.8650	 4.8690
13.9020	 4.5150
13.9390	 4.7260
13.9770	 4.4690
14.0150	 4.8240
14.0530	 4.4610
14.0910	 4.6560
14.1290	 4.3020
14.1680	 4.5870
14.2070	 4.2530
14.2460	 4.6200
14.2850	 4.3900
14.3240	 4.9780
14.3640	 4.7960
14.4040	 5.0230
14.4440	 4.6410
14.4840	 4.9550
14.5250	 4.4200
14.5660	 4.7710
14.6070	 4.5150
14.6480	 4.8820
14.6900	 4.3860
14.7310	 4.9280
14.7730	 4.4930
14.8150	 4.9290
14.8580	 4.3290
14.9010	 4.7740
14.9440	 4.3640
14.9870	 4.7580
15.0300	 4.2020
15.0740	 4.7270
15.1180	 4.4390
15.1620	 5.0330
15.2060	 4.1890
15.2510	 4.7590
15.2960	 4.3560
15.3410	 4.9650
15.3870	 4.4990
