Name: Heteromeles arbutifolia 2
Type: vegetation
Class: Shrub
Genus: Heteromeles
Species: arbutifolia
Sample No.: VH015
Owner: UCSB
Wavelength Range: VSWIR
Origin: 34.4907; -119.7912; WGS84
Collection Date: 4/1/2013
Description: Samples were collected as part of the HyspIRI Airborne Campaign. 48 individual plants were sampled in three times in 2013 - spring  summer  and fall. The name of the sample includes a 1  2  or 3 which references a different individual of the species. Samples were taken to JPL and processed within 48 hours of collection. The same leaves were processed in the Nicolet and then measured using the ASD.
Measurement: Bidirectional reflectance
First Column: X
Second Column: Y
X Units: Wavelength (micrometers)
Y Units: Reflectance (percentage)
First X Value: 0.35
Last X Value: 2.5
Number of X Values: 2151
Additional Information: vegetation.shrub.heteromeles.arbutifolia.vswir.vh015.ucsb.asd.ancillary.txt

 0.3500	 5.4460
 0.3510	 5.4210
 0.3520	 5.3370
 0.3530	 5.3550
 0.3540	 5.5340
 0.3550	 5.5510
 0.3560	 5.4440
 0.3570	 5.3300
 0.3580	 5.3380
 0.3590	 5.3780
 0.3600	 5.3680
 0.3610	 5.3010
 0.3620	 5.2700
 0.3630	 5.2500
 0.3640	 5.2660
 0.3650	 5.3290
 0.3660	 5.3440
 0.3670	 5.3530
 0.3680	 5.3870
 0.3690	 5.4550
 0.3700	 5.4510
 0.3710	 5.4230
 0.3720	 5.3910
 0.3730	 5.2600
 0.3740	 5.3190
 0.3750	 5.3950
 0.3760	 5.2740
 0.3770	 5.3230
 0.3780	 5.4140
 0.3790	 5.4150
 0.3800	 5.2380
 0.3810	 5.2840
 0.3820	 5.3750
 0.3830	 5.3430
 0.3840	 5.2420
 0.3850	 5.2890
 0.3860	 5.3940
 0.3870	 5.3850
 0.3880	 5.3650
 0.3890	 5.3620
 0.3900	 5.3770
 0.3910	 5.3910
 0.3920	 5.4060
 0.3930	 5.3740
 0.3940	 5.3000
 0.3950	 5.3290
 0.3960	 5.3980
 0.3970	 5.4260
 0.3980	 5.3610
 0.3990	 5.3670
 0.4000	 5.3880
 0.4010	 5.3750
 0.4020	 5.3140
 0.4030	 5.3590
 0.4040	 5.4130
 0.4050	 5.3790
 0.4060	 5.3870
 0.4070	 5.4240
 0.4080	 5.4520
 0.4090	 5.4260
 0.4100	 5.4290
 0.4110	 5.4240
 0.4120	 5.4010
 0.4130	 5.4240
 0.4140	 5.4390
 0.4150	 5.4390
 0.4160	 5.4300
 0.4170	 5.4340
 0.4180	 5.4410
 0.4190	 5.4410
 0.4200	 5.4240
 0.4210	 5.4190
 0.4220	 5.4300
 0.4230	 5.4480
 0.4240	 5.4400
 0.4250	 5.4280
 0.4260	 5.4200
 0.4270	 5.4150
 0.4280	 5.4270
 0.4290	 5.4280
 0.4300	 5.4170
 0.4310	 5.4290
 0.4320	 5.4340
 0.4330	 5.4280
 0.4340	 5.4150
 0.4350	 5.4070
 0.4360	 5.4020
 0.4370	 5.3980
 0.4380	 5.3910
 0.4390	 5.4020
 0.4400	 5.4180
 0.4410	 5.4270
 0.4420	 5.4280
 0.4430	 5.4170
 0.4440	 5.4030
 0.4450	 5.3970
 0.4460	 5.4140
 0.4470	 5.4180
 0.4480	 5.4040
 0.4490	 5.4110
 0.4500	 5.4170
 0.4510	 5.4190
 0.4520	 5.4180
 0.4530	 5.4260
 0.4540	 5.4380
 0.4550	 5.4370
 0.4560	 5.4050
 0.4570	 5.4210
 0.4580	 5.4380
 0.4590	 5.4270
 0.4600	 5.4200
 0.4610	 5.4240
 0.4620	 5.4290
 0.4630	 5.4210
 0.4640	 5.4030
 0.4650	 5.4030
 0.4660	 5.4150
 0.4670	 5.4060
 0.4680	 5.4020
 0.4690	 5.4060
 0.4700	 5.4120
 0.4710	 5.4030
 0.4720	 5.3950
 0.4730	 5.3910
 0.4740	 5.3870
 0.4750	 5.3790
 0.4760	 5.3820
 0.4770	 5.3950
 0.4780	 5.3970
 0.4790	 5.3850
 0.4800	 5.3750
 0.4810	 5.3810
 0.4820	 5.3880
 0.4830	 5.3920
 0.4840	 5.3910
 0.4850	 5.3900
 0.4860	 5.3850
 0.4870	 5.3890
 0.4880	 5.4020
 0.4890	 5.4000
 0.4900	 5.3930
 0.4910	 5.3960
 0.4920	 5.4140
 0.4930	 5.4190
 0.4940	 5.4140
 0.4950	 5.4130
 0.4960	 5.4340
 0.4970	 5.4390
 0.4980	 5.4410
 0.4990	 5.4570
 0.5000	 5.4680
 0.5010	 5.4800
 0.5020	 5.4960
 0.5030	 5.5200
 0.5040	 5.5390
 0.5050	 5.5610
 0.5060	 5.5910
 0.5070	 5.6170
 0.5080	 5.6460
 0.5090	 5.6810
 0.5100	 5.7210
 0.5110	 5.7740
 0.5120	 5.8320
 0.5130	 5.8920
 0.5140	 5.9580
 0.5150	 6.0320
 0.5160	 6.1170
 0.5170	 6.2110
 0.5180	 6.3130
 0.5190	 6.4140
 0.5200	 6.5160
 0.5210	 6.6290
 0.5220	 6.7450
 0.5230	 6.8610
 0.5240	 6.9790
 0.5250	 7.1040
 0.5260	 7.2280
 0.5270	 7.3440
 0.5280	 7.4450
 0.5290	 7.5490
 0.5300	 7.6460
 0.5310	 7.7330
 0.5320	 7.8130
 0.5330	 7.8860
 0.5340	 7.9520
 0.5350	 8.0090
 0.5360	 8.0620
 0.5370	 8.1120
 0.5380	 8.1540
 0.5390	 8.1830
 0.5400	 8.2190
 0.5410	 8.2560
 0.5420	 8.2920
 0.5430	 8.3260
 0.5440	 8.3490
 0.5450	 8.3680
 0.5460	 8.3910
 0.5470	 8.4040
 0.5480	 8.4170
 0.5490	 8.4320
 0.5500	 8.4420
 0.5510	 8.4480
 0.5520	 8.4490
 0.5530	 8.4420
 0.5540	 8.4280
 0.5550	 8.4040
 0.5560	 8.3690
 0.5570	 8.3260
 0.5580	 8.2830
 0.5590	 8.2280
 0.5600	 8.1560
 0.5610	 8.0900
 0.5620	 8.0230
 0.5630	 7.9500
 0.5640	 7.8640
 0.5650	 7.7810
 0.5660	 7.6930
 0.5670	 7.6010
 0.5680	 7.5100
 0.5690	 7.4200
 0.5700	 7.3290
 0.5710	 7.2350
 0.5720	 7.1520
 0.5730	 7.0750
 0.5740	 7.0050
 0.5750	 6.9450
 0.5760	 6.8980
 0.5770	 6.8540
 0.5780	 6.8070
 0.5790	 6.7580
 0.5800	 6.7110
 0.5810	 6.6660
 0.5820	 6.6250
 0.5830	 6.5870
 0.5840	 6.5500
 0.5850	 6.5100
 0.5860	 6.4620
 0.5870	 6.4250
 0.5880	 6.3930
 0.5890	 6.3590
 0.5900	 6.3340
 0.5910	 6.3200
 0.5920	 6.3160
 0.5930	 6.3100
 0.5940	 6.2970
 0.5950	 6.2810
 0.5960	 6.2650
 0.5970	 6.2490
 0.5980	 6.2350
 0.5990	 6.2220
 0.6000	 6.2060
 0.6010	 6.1890
 0.6020	 6.1710
 0.6030	 6.1520
 0.6040	 6.1350
 0.6050	 6.1180
 0.6060	 6.0970
 0.6070	 6.0710
 0.6080	 6.0470
 0.6090	 6.0240
 0.6100	 6.0010
 0.6110	 5.9750
 0.6120	 5.9550
 0.6130	 5.9290
 0.6140	 5.8970
 0.6150	 5.8740
 0.6160	 5.8460
 0.6170	 5.8190
 0.6180	 5.8020
 0.6190	 5.7810
 0.6200	 5.7650
 0.6210	 5.7560
 0.6220	 5.7480
 0.6230	 5.7340
 0.6240	 5.7200
 0.6250	 5.7120
 0.6260	 5.7090
 0.6270	 5.7020
 0.6280	 5.6930
 0.6290	 5.6870
 0.6300	 5.6840
 0.6310	 5.6820
 0.6320	 5.6800
 0.6330	 5.6710
 0.6340	 5.6570
 0.6350	 5.6450
 0.6360	 5.6390
 0.6370	 5.6200
 0.6380	 5.6000
 0.6390	 5.5810
 0.6400	 5.5590
 0.6410	 5.5350
 0.6420	 5.5120
 0.6430	 5.4910
 0.6440	 5.4700
 0.6450	 5.4490
 0.6460	 5.4280
 0.6470	 5.4110
 0.6480	 5.3950
 0.6490	 5.3830
 0.6500	 5.3730
 0.6510	 5.3640
 0.6520	 5.3580
 0.6530	 5.3520
 0.6540	 5.3470
 0.6550	 5.3430
 0.6560	 5.3370
 0.6570	 5.3270
 0.6580	 5.3150
 0.6590	 5.3150
 0.6600	 5.3090
 0.6610	 5.2950
 0.6620	 5.2920
 0.6630	 5.2870
 0.6640	 5.2820
 0.6650	 5.2770
 0.6660	 5.2760
 0.6670	 5.2780
 0.6680	 5.2800
 0.6690	 5.2790
 0.6700	 5.2860
 0.6710	 5.2930
 0.6720	 5.2990
 0.6730	 5.3130
 0.6740	 5.3270
 0.6750	 5.3400
 0.6760	 5.3530
 0.6770	 5.3700
 0.6780	 5.3880
 0.6790	 5.4060
 0.6800	 5.4320
 0.6810	 5.4530
 0.6820	 5.4750
 0.6830	 5.5020
 0.6840	 5.5310
 0.6850	 5.5570
 0.6860	 5.5860
 0.6870	 5.6240
 0.6880	 5.6630
 0.6890	 5.7120
 0.6900	 5.7770
 0.6910	 5.8600
 0.6920	 5.9680
 0.6930	 6.1070
 0.6940	 6.2840
 0.6950	 6.5060
 0.6960	 6.7770
 0.6970	 7.1000
 0.6980	 7.4770
 0.6990	 7.9050
 0.7000	 8.3890
 0.7010	 8.9240
 0.7020	 9.4980
 0.7030	10.1140
 0.7040	10.7640
 0.7050	11.4380
 0.7060	12.1360
 0.7070	12.8600
 0.7080	13.6010
 0.7090	14.3560
 0.7100	15.1290
 0.7110	15.9160
 0.7120	16.7170
 0.7130	17.5300
 0.7140	18.3470
 0.7150	19.1720
 0.7160	20.0060
 0.7170	20.8370
 0.7180	21.6710
 0.7190	22.5030
 0.7200	23.3280
 0.7210	24.1480
 0.7220	24.9580
 0.7230	25.7540
 0.7240	26.5320
 0.7250	27.2880
 0.7260	28.0220
 0.7270	28.7350
 0.7280	29.4260
 0.7290	30.0860
 0.7300	30.7150
 0.7310	31.3170
 0.7320	31.8880
 0.7330	32.4350
 0.7340	32.9540
 0.7350	33.4380
 0.7360	33.8940
 0.7370	34.3240
 0.7380	34.7310
 0.7390	35.1160
 0.7400	35.4690
 0.7410	35.7940
 0.7420	36.1010
 0.7430	36.3840
 0.7440	36.6450
 0.7450	36.8870
 0.7460	37.1090
 0.7470	37.3130
 0.7480	37.4980
 0.7490	37.6660
 0.7500	37.8170
 0.7510	37.9520
 0.7520	38.0750
 0.7530	38.1880
 0.7540	38.2900
 0.7550	38.3830
 0.7560	38.4660
 0.7570	38.5410
 0.7580	38.6040
 0.7590	38.6600
 0.7600	38.7140
 0.7610	38.7650
 0.7620	38.8060
 0.7630	38.8400
 0.7640	38.8720
 0.7650	38.9000
 0.7660	38.9230
 0.7670	38.9430
 0.7680	38.9630
 0.7690	38.9820
 0.7700	38.9990
 0.7710	39.0130
 0.7720	39.0220
 0.7730	39.0330
 0.7740	39.0410
 0.7750	39.0450
 0.7760	39.0560
 0.7770	39.0640
 0.7780	39.0710
 0.7790	39.0800
 0.7800	39.0860
 0.7810	39.0910
 0.7820	39.0960
 0.7830	39.1020
 0.7840	39.1070
 0.7850	39.1120
 0.7860	39.1180
 0.7870	39.1210
 0.7880	39.1260
 0.7890	39.1300
 0.7900	39.1280
 0.7910	39.1360
 0.7920	39.1410
 0.7930	39.1420
 0.7940	39.1450
 0.7950	39.1530
 0.7960	39.1550
 0.7970	39.1510
 0.7980	39.1570
 0.7990	39.1610
 0.8000	39.1610
 0.8010	39.1570
 0.8020	39.1600
 0.8030	39.1600
 0.8040	39.1580
 0.8050	39.1570
 0.8060	39.1580
 0.8070	39.1550
 0.8080	39.1540
 0.8090	39.1630
 0.8100	39.1590
 0.8110	39.1530
 0.8120	39.1540
 0.8130	39.1560
 0.8140	39.1530
 0.8150	39.1470
 0.8160	39.1450
 0.8170	39.1480
 0.8180	39.1450
 0.8190	39.1390
 0.8200	39.1390
 0.8210	39.1340
 0.8220	39.1260
 0.8230	39.1210
 0.8240	39.1260
 0.8250	39.1280
 0.8260	39.1240
 0.8270	39.1170
 0.8280	39.1230
 0.8290	39.1230
 0.8300	39.1170
 0.8310	39.1130
 0.8320	39.1090
 0.8330	39.1050
 0.8340	39.1030
 0.8350	39.1030
 0.8360	39.0970
 0.8370	39.0980
 0.8380	39.1050
 0.8390	39.0990
 0.8400	39.1020
 0.8410	39.1040
 0.8420	39.1020
 0.8430	39.1010
 0.8440	39.1020
 0.8450	39.1030
 0.8460	39.1020
 0.8470	39.1030
 0.8480	39.1030
 0.8490	39.1030
 0.8500	39.1050
 0.8510	39.0980
 0.8520	39.0990
 0.8530	39.1040
 0.8540	39.1020
 0.8550	39.1070
 0.8560	39.1090
 0.8570	39.1080
 0.8580	39.1120
 0.8590	39.1120
 0.8600	39.1130
 0.8610	39.1170
 0.8620	39.1180
 0.8630	39.1180
 0.8640	39.1160
 0.8650	39.1130
 0.8660	39.1150
 0.8670	39.1110
 0.8680	39.1100
 0.8690	39.1220
 0.8700	39.1210
 0.8710	39.1200
 0.8720	39.1230
 0.8730	39.1280
 0.8740	39.1240
 0.8750	39.1220
 0.8760	39.1250
 0.8770	39.1300
 0.8780	39.1320
 0.8790	39.1300
 0.8800	39.1240
 0.8810	39.1150
 0.8820	39.1200
 0.8830	39.1270
 0.8840	39.1270
 0.8850	39.1290
 0.8860	39.1310
 0.8870	39.1270
 0.8880	39.1180
 0.8890	39.1210
 0.8900	39.1280
 0.8910	39.1290
 0.8920	39.1220
 0.8930	39.1290
 0.8940	39.1320
 0.8950	39.1300
 0.8960	39.1300
 0.8970	39.1240
 0.8980	39.1240
 0.8990	39.1260
 0.9000	39.1120
 0.9010	39.1120
 0.9020	39.1180
 0.9030	39.1220
 0.9040	39.1230
 0.9050	39.1230
 0.9060	39.1220
 0.9070	39.1180
 0.9080	39.1090
 0.9090	39.1090
 0.9100	39.1180
 0.9110	39.1270
 0.9120	39.1220
 0.9130	39.1180
 0.9140	39.1120
 0.9150	39.1020
 0.9160	39.1060
 0.9170	39.1060
 0.9180	39.1040
 0.9190	39.1010
 0.9200	39.0890
 0.9210	39.0810
 0.9220	39.0810
 0.9230	39.0840
 0.9240	39.0760
 0.9250	39.0710
 0.9260	39.0690
 0.9270	39.0560
 0.9280	39.0550
 0.9290	39.0490
 0.9300	39.0330
 0.9310	39.0210
 0.9320	39.0160
 0.9330	39.0060
 0.9340	38.9910
 0.9350	38.9920
 0.9360	38.9780
 0.9370	38.9560
 0.9380	38.9340
 0.9390	38.9190
 0.9400	38.9040
 0.9410	38.8960
 0.9420	38.8900
 0.9430	38.8560
 0.9440	38.8340
 0.9450	38.8160
 0.9460	38.7880
 0.9470	38.7560
 0.9480	38.7340
 0.9490	38.7090
 0.9500	38.6760
 0.9510	38.6480
 0.9520	38.6180
 0.9530	38.5810
 0.9540	38.5390
 0.9550	38.5050
 0.9560	38.4720
 0.9570	38.4370
 0.9580	38.3970
 0.9590	38.3490
 0.9600	38.3250
 0.9610	38.3150
 0.9620	38.2980
 0.9630	38.2730
 0.9640	38.2500
 0.9650	38.2350
 0.9660	38.2290
 0.9670	38.2160
 0.9680	38.1940
 0.9690	38.1770
 0.9700	38.1750
 0.9710	38.1690
 0.9720	38.1630
 0.9730	38.1550
 0.9740	38.1430
 0.9750	38.1270
 0.9760	38.1210
 0.9770	38.1250
 0.9780	38.1310
 0.9790	38.1450
 0.9800	38.1430
 0.9810	38.1370
 0.9820	38.1470
 0.9830	38.1510
 0.9840	38.1570
 0.9850	38.1620
 0.9860	38.1580
 0.9870	38.1680
 0.9880	38.1780
 0.9890	38.1930
 0.9900	38.2200
 0.9910	38.2270
 0.9920	38.2220
 0.9930	38.2170
 0.9940	38.2130
 0.9950	38.2080
 0.9960	38.2040
 0.9970	38.1990
 0.9980	38.1950
 0.9990	38.1900
 1.0000	38.1860
 1.0010	38.1810
 1.0020	38.1770
 1.0030	38.1720
 1.0040	38.1670
 1.0050	38.1630
 1.0060	38.1580
 1.0070	38.1540
 1.0080	38.1490
 1.0090	38.1450
 1.0100	38.1450
 1.0110	38.1600
 1.0120	38.1740
 1.0130	38.1840
 1.0140	38.1960
 1.0150	38.2100
 1.0160	38.2240
 1.0170	38.2280
 1.0180	38.2340
 1.0190	38.2460
 1.0200	38.2550
 1.0210	38.2700
 1.0220	38.2880
 1.0230	38.2990
 1.0240	38.3040
 1.0250	38.3130
 1.0260	38.3210
 1.0270	38.3300
 1.0280	38.3400
 1.0290	38.3510
 1.0300	38.3650
 1.0310	38.3750
 1.0320	38.3850
 1.0330	38.3930
 1.0340	38.4010
 1.0350	38.4050
 1.0360	38.4090
 1.0370	38.4160
 1.0380	38.4230
 1.0390	38.4320
 1.0400	38.4400
 1.0410	38.4510
 1.0420	38.4590
 1.0430	38.4640
 1.0440	38.4700
 1.0450	38.4740
 1.0460	38.4790
 1.0470	38.4830
 1.0480	38.4870
 1.0490	38.4910
 1.0500	38.4960
 1.0510	38.5000
 1.0520	38.5040
 1.0530	38.5090
 1.0540	38.5140
 1.0550	38.5190
 1.0560	38.5260
 1.0570	38.5320
 1.0580	38.5400
 1.0590	38.5440
 1.0600	38.5420
 1.0610	38.5440
 1.0620	38.5440
 1.0630	38.5440
 1.0640	38.5470
 1.0650	38.5490
 1.0660	38.5490
 1.0670	38.5510
 1.0680	38.5530
 1.0690	38.5570
 1.0700	38.5580
 1.0710	38.5580
 1.0720	38.5590
 1.0730	38.5590
 1.0740	38.5600
 1.0750	38.5620
 1.0760	38.5630
 1.0770	38.5630
 1.0780	38.5630
 1.0790	38.5610
 1.0800	38.5590
 1.0810	38.5580
 1.0820	38.5560
 1.0830	38.5580
 1.0840	38.5550
 1.0850	38.5490
 1.0860	38.5430
 1.0870	38.5390
 1.0880	38.5350
 1.0890	38.5310
 1.0900	38.5290
 1.0910	38.5240
 1.0920	38.5150
 1.0930	38.5090
 1.0940	38.5040
 1.0950	38.4980
 1.0960	38.4950
 1.0970	38.4890
 1.0980	38.4810
 1.0990	38.4740
 1.1000	38.4650
 1.1010	38.4570
 1.1020	38.4490
 1.1030	38.4400
 1.1040	38.4310
 1.1050	38.4200
 1.1060	38.4090
 1.1070	38.3980
 1.1080	38.3880
 1.1090	38.3780
 1.1100	38.3680
 1.1110	38.3580
 1.1120	38.3460
 1.1130	38.3330
 1.1140	38.3190
 1.1150	38.3010
 1.1160	38.2850
 1.1170	38.2700
 1.1180	38.2520
 1.1190	38.2330
 1.1200	38.2140
 1.1210	38.1930
 1.1220	38.1660
 1.1230	38.1390
 1.1240	38.1120
 1.1250	38.0830
 1.1260	38.0540
 1.1270	38.0180
 1.1280	37.9790
 1.1290	37.9350
 1.1300	37.8830
 1.1310	37.8290
 1.1320	37.7730
 1.1330	37.7130
 1.1340	37.6500
 1.1350	37.5820
 1.1360	37.5100
 1.1370	37.4340
 1.1380	37.3560
 1.1390	37.2750
 1.1400	37.1930
 1.1410	37.1110
 1.1420	37.0260
 1.1430	36.9400
 1.1440	36.8530
 1.1450	36.7630
 1.1460	36.6780
 1.1470	36.5910
 1.1480	36.5090
 1.1490	36.4270
 1.1500	36.3520
 1.1510	36.2780
 1.1520	36.2100
 1.1530	36.1490
 1.1540	36.0910
 1.1550	36.0360
 1.1560	35.9880
 1.1570	35.9430
 1.1580	35.9010
 1.1590	35.8650
 1.1600	35.8320
 1.1610	35.8030
 1.1620	35.7770
 1.1630	35.7520
 1.1640	35.7280
 1.1650	35.7070
 1.1660	35.6890
 1.1670	35.6730
 1.1680	35.6610
 1.1690	35.6480
 1.1700	35.6370
 1.1710	35.6260
 1.1720	35.6140
 1.1730	35.6020
 1.1740	35.5910
 1.1750	35.5770
 1.1760	35.5620
 1.1770	35.5510
 1.1780	35.5370
 1.1790	35.5230
 1.1800	35.5100
 1.1810	35.4940
 1.1820	35.4790
 1.1830	35.4660
 1.1840	35.4530
 1.1850	35.4400
 1.1860	35.4270
 1.1870	35.4160
 1.1880	35.4050
 1.1890	35.3930
 1.1900	35.3850
 1.1910	35.3790
 1.1920	35.3710
 1.1930	35.3650
 1.1940	35.3600
 1.1950	35.3530
 1.1960	35.3490
 1.1970	35.3470
 1.1980	35.3460
 1.1990	35.3460
 1.2000	35.3460
 1.2010	35.3490
 1.2020	35.3530
 1.2030	35.3580
 1.2040	35.3660
 1.2050	35.3740
 1.2060	35.3820
 1.2070	35.3890
 1.2080	35.3980
 1.2090	35.4090
 1.2100	35.4200
 1.2110	35.4320
 1.2120	35.4480
 1.2130	35.4630
 1.2140	35.4790
 1.2150	35.4960
 1.2160	35.5150
 1.2170	35.5320
 1.2180	35.5500
 1.2190	35.5690
 1.2200	35.5870
 1.2210	35.6060
 1.2220	35.6270
 1.2230	35.6470
 1.2240	35.6660
 1.2250	35.6850
 1.2260	35.7030
 1.2270	35.7210
 1.2280	35.7390
 1.2290	35.7560
 1.2300	35.7700
 1.2310	35.7840
 1.2320	35.8010
 1.2330	35.8180
 1.2340	35.8330
 1.2350	35.8480
 1.2360	35.8610
 1.2370	35.8710
 1.2380	35.8810
 1.2390	35.8900
 1.2400	35.9010
 1.2410	35.9130
 1.2420	35.9240
 1.2430	35.9360
 1.2440	35.9480
 1.2450	35.9570
 1.2460	35.9670
 1.2470	35.9770
 1.2480	35.9860
 1.2490	35.9960
 1.2500	36.0060
 1.2510	36.0130
 1.2520	36.0200
 1.2530	36.0260
 1.2540	36.0300
 1.2550	36.0360
 1.2560	36.0430
 1.2570	36.0470
 1.2580	36.0530
 1.2590	36.0570
 1.2600	36.0590
 1.2610	36.0620
 1.2620	36.0640
 1.2630	36.0660
 1.2640	36.0670
 1.2650	36.0680
 1.2660	36.0660
 1.2670	36.0630
 1.2680	36.0600
 1.2690	36.0580
 1.2700	36.0560
 1.2710	36.0530
 1.2720	36.0490
 1.2730	36.0400
 1.2740	36.0330
 1.2750	36.0250
 1.2760	36.0150
 1.2770	36.0060
 1.2780	35.9960
 1.2790	35.9850
 1.2800	35.9760
 1.2810	35.9670
 1.2820	35.9550
 1.2830	35.9440
 1.2840	35.9290
 1.2850	35.9120
 1.2860	35.8960
 1.2870	35.8780
 1.2880	35.8590
 1.2890	35.8400
 1.2900	35.8210
 1.2910	35.8020
 1.2920	35.7810
 1.2930	35.7590
 1.2940	35.7370
 1.2950	35.7120
 1.2960	35.6860
 1.2970	35.6600
 1.2980	35.6330
 1.2990	35.6050
 1.3000	35.5750
 1.3010	35.5450
 1.3020	35.5140
 1.3030	35.4780
 1.3040	35.4420
 1.3050	35.4060
 1.3060	35.3650
 1.3070	35.3250
 1.3080	35.2830
 1.3090	35.2370
 1.3100	35.1900
 1.3110	35.1410
 1.3120	35.0900
 1.3130	35.0380
 1.3140	34.9810
 1.3150	34.9210
 1.3160	34.8590
 1.3170	34.7960
 1.3180	34.7300
 1.3190	34.6640
 1.3200	34.5950
 1.3210	34.5200
 1.3220	34.4420
 1.3230	34.3630
 1.3240	34.2830
 1.3250	34.2040
 1.3260	34.1240
 1.3270	34.0400
 1.3280	33.9530
 1.3290	33.8630
 1.3300	33.7730
 1.3310	33.6820
 1.3320	33.5890
 1.3330	33.4960
 1.3340	33.4000
 1.3350	33.3050
 1.3360	33.2090
 1.3370	33.1100
 1.3380	33.0120
 1.3390	32.9110
 1.3400	32.8110
 1.3410	32.7140
 1.3420	32.6180
 1.3430	32.5240
 1.3440	32.4300
 1.3450	32.3360
 1.3460	32.2410
 1.3470	32.1480
 1.3480	32.0560
 1.3490	31.9650
 1.3500	31.8760
 1.3510	31.7870
 1.3520	31.6990
 1.3530	31.6110
 1.3540	31.5240
 1.3550	31.4370
 1.3560	31.3490
 1.3570	31.2600
 1.3580	31.1700
 1.3590	31.0780
 1.3600	30.9830
 1.3610	30.8860
 1.3620	30.7860
 1.3630	30.6820
 1.3640	30.5740
 1.3650	30.4620
 1.3660	30.3460
 1.3670	30.2220
 1.3680	30.0900
 1.3690	29.9500
 1.3700	29.7990
 1.3710	29.6390
 1.3720	29.4700
 1.3730	29.2880
 1.3740	29.0940
 1.3750	28.8860
 1.3760	28.6620
 1.3770	28.4240
 1.3780	28.1670
 1.3790	27.8950
 1.3800	27.6080
 1.3810	27.3010
 1.3820	26.9790
 1.3830	26.6410
 1.3840	26.2880
 1.3850	25.9180
 1.3860	25.5360
 1.3870	25.1370
 1.3880	24.7340
 1.3890	24.3190
 1.3900	23.8960
 1.3910	23.4720
 1.3920	23.0430
 1.3930	22.6090
 1.3940	22.1760
 1.3950	21.7410
 1.3960	21.3110
 1.3970	20.8880
 1.3980	20.4720
 1.3990	20.0710
 1.4000	19.6800
 1.4010	19.2990
 1.4020	18.9330
 1.4030	18.5790
 1.4040	18.2400
 1.4050	17.9170
 1.4060	17.6090
 1.4070	17.3200
 1.4080	17.0460
 1.4090	16.7860
 1.4100	16.5440
 1.4110	16.3150
 1.4120	16.1010
 1.4130	15.9030
 1.4140	15.7180
 1.4150	15.5490
 1.4160	15.3910
 1.4170	15.2440
 1.4180	15.1100
 1.4190	14.9850
 1.4200	14.8680
 1.4210	14.7630
 1.4220	14.6650
 1.4230	14.5750
 1.4240	14.4940
 1.4250	14.4190
 1.4260	14.3510
 1.4270	14.2880
 1.4280	14.2310
 1.4290	14.1800
 1.4300	14.1340
 1.4310	14.0920
 1.4320	14.0570
 1.4330	14.0240
 1.4340	13.9960
 1.4350	13.9720
 1.4360	13.9520
 1.4370	13.9360
 1.4380	13.9220
 1.4390	13.9120
 1.4400	13.9040
 1.4410	13.8980
 1.4420	13.8960
 1.4430	13.8950
 1.4440	13.8960
 1.4450	13.8990
 1.4460	13.9040
 1.4470	13.9100
 1.4480	13.9170
 1.4490	13.9260
 1.4500	13.9370
 1.4510	13.9490
 1.4520	13.9630
 1.4530	13.9780
 1.4540	13.9940
 1.4550	14.0110
 1.4560	14.0310
 1.4570	14.0520
 1.4580	14.0770
 1.4590	14.1040
 1.4600	14.1340
 1.4610	14.1670
 1.4620	14.2030
 1.4630	14.2430
 1.4640	14.2860
 1.4650	14.3330
 1.4660	14.3840
 1.4670	14.4370
 1.4680	14.4950
 1.4690	14.5560
 1.4700	14.6210
 1.4710	14.6890
 1.4720	14.7600
 1.4730	14.8330
 1.4740	14.9090
 1.4750	14.9870
 1.4760	15.0680
 1.4770	15.1510
 1.4780	15.2360
 1.4790	15.3230
 1.4800	15.4090
 1.4810	15.4990
 1.4820	15.5900
 1.4830	15.6810
 1.4840	15.7750
 1.4850	15.8690
 1.4860	15.9630
 1.4870	16.0600
 1.4880	16.1540
 1.4890	16.2500
 1.4900	16.3460
 1.4910	16.4420
 1.4920	16.5390
 1.4930	16.6370
 1.4940	16.7350
 1.4950	16.8330
 1.4960	16.9320
 1.4970	17.0320
 1.4980	17.1300
 1.4990	17.2290
 1.5000	17.3280
 1.5010	17.4270
 1.5020	17.5260
 1.5030	17.6260
 1.5040	17.7250
 1.5050	17.8220
 1.5060	17.9210
 1.5070	18.0200
 1.5080	18.1180
 1.5090	18.2170
 1.5100	18.3160
 1.5110	18.4130
 1.5120	18.5100
 1.5130	18.6060
 1.5140	18.7010
 1.5150	18.7960
 1.5160	18.8910
 1.5170	18.9860
 1.5180	19.0810
 1.5190	19.1750
 1.5200	19.2680
 1.5210	19.3590
 1.5220	19.4500
 1.5230	19.5420
 1.5240	19.6330
 1.5250	19.7240
 1.5260	19.8140
 1.5270	19.9020
 1.5280	19.9900
 1.5290	20.0760
 1.5300	20.1620
 1.5310	20.2480
 1.5320	20.3330
 1.5330	20.4180
 1.5340	20.5010
 1.5350	20.5850
 1.5360	20.6680
 1.5370	20.7490
 1.5380	20.8280
 1.5390	20.9070
 1.5400	20.9840
 1.5410	21.0630
 1.5420	21.1400
 1.5430	21.2180
 1.5440	21.2950
 1.5450	21.3700
 1.5460	21.4440
 1.5470	21.5190
 1.5480	21.5920
 1.5490	21.6650
 1.5500	21.7390
 1.5510	21.8120
 1.5520	21.8840
 1.5530	21.9530
 1.5540	22.0220
 1.5550	22.0900
 1.5560	22.1560
 1.5570	22.2220
 1.5580	22.2870
 1.5590	22.3510
 1.5600	22.4150
 1.5610	22.4770
 1.5620	22.5400
 1.5630	22.6010
 1.5640	22.6620
 1.5650	22.7220
 1.5660	22.7820
 1.5670	22.8410
 1.5680	22.9010
 1.5690	22.9590
 1.5700	23.0180
 1.5710	23.0760
 1.5720	23.1340
 1.5730	23.1910
 1.5740	23.2470
 1.5750	23.3020
 1.5760	23.3570
 1.5770	23.4100
 1.5780	23.4650
 1.5790	23.5200
 1.5800	23.5730
 1.5810	23.6270
 1.5820	23.6800
 1.5830	23.7320
 1.5840	23.7840
 1.5850	23.8350
 1.5860	23.8860
 1.5870	23.9350
 1.5880	23.9850
 1.5890	24.0350
 1.5900	24.0860
 1.5910	24.1380
 1.5920	24.1880
 1.5930	24.2360
 1.5940	24.2830
 1.5950	24.3290
 1.5960	24.3740
 1.5970	24.4230
 1.5980	24.4700
 1.5990	24.5160
 1.6000	24.5620
 1.6010	24.6060
 1.6020	24.6500
 1.6030	24.6940
 1.6040	24.7400
 1.6050	24.7860
 1.6060	24.8300
 1.6070	24.8740
 1.6080	24.9140
 1.6090	24.9530
 1.6100	24.9910
 1.6110	25.0280
 1.6120	25.0650
 1.6130	25.1050
 1.6140	25.1440
 1.6150	25.1820
 1.6160	25.2210
 1.6170	25.2560
 1.6180	25.2900
 1.6190	25.3240
 1.6200	25.3550
 1.6210	25.3860
 1.6220	25.4170
 1.6230	25.4470
 1.6240	25.4780
 1.6250	25.5090
 1.6260	25.5400
 1.6270	25.5710
 1.6280	25.5980
 1.6290	25.6250
 1.6300	25.6500
 1.6310	25.6760
 1.6320	25.7020
 1.6330	25.7290
 1.6340	25.7570
 1.6350	25.7830
 1.6360	25.8110
 1.6370	25.8350
 1.6380	25.8550
 1.6390	25.8770
 1.6400	25.8960
 1.6410	25.9160
 1.6420	25.9380
 1.6430	25.9560
 1.6440	25.9720
 1.6450	25.9860
 1.6460	25.9980
 1.6470	26.0070
 1.6480	26.0150
 1.6490	26.0220
 1.6500	26.0260
 1.6510	26.0290
 1.6520	26.0300
 1.6530	26.0270
 1.6540	26.0230
 1.6550	26.0180
 1.6560	26.0130
 1.6570	26.0070
 1.6580	25.9990
 1.6590	25.9900
 1.6600	25.9790
 1.6610	25.9680
 1.6620	25.9570
 1.6630	25.9460
 1.6640	25.9360
 1.6650	25.9260
 1.6660	25.9160
 1.6670	25.9050
 1.6680	25.8950
 1.6690	25.8860
 1.6700	25.8790
 1.6710	25.8700
 1.6720	25.8600
 1.6730	25.8480
 1.6740	25.8350
 1.6750	25.8230
 1.6760	25.8100
 1.6770	25.7960
 1.6780	25.7800
 1.6790	25.7630
 1.6800	25.7450
 1.6810	25.7260
 1.6820	25.7050
 1.6830	25.6800
 1.6840	25.6540
 1.6850	25.6270
 1.6860	25.5980
 1.6870	25.5690
 1.6880	25.5410
 1.6890	25.5100
 1.6900	25.4790
 1.6910	25.4490
 1.6920	25.4170
 1.6930	25.3850
 1.6940	25.3530
 1.6950	25.3220
 1.6960	25.2880
 1.6970	25.2540
 1.6980	25.2190
 1.6990	25.1810
 1.7000	25.1440
 1.7010	25.1050
 1.7020	25.0670
 1.7030	25.0270
 1.7040	24.9880
 1.7050	24.9480
 1.7060	24.9080
 1.7070	24.8680
 1.7080	24.8290
 1.7090	24.7900
 1.7100	24.7510
 1.7110	24.7120
 1.7120	24.6730
 1.7130	24.6350
 1.7140	24.5980
 1.7150	24.5610
 1.7160	24.5250
 1.7170	24.4870
 1.7180	24.4470
 1.7190	24.4100
 1.7200	24.3750
 1.7210	24.3410
 1.7220	24.3080
 1.7230	24.2750
 1.7240	24.2410
 1.7250	24.2090
 1.7260	24.1760
 1.7270	24.1450
 1.7280	24.1140
 1.7290	24.0840
 1.7300	24.0580
 1.7310	24.0310
 1.7320	24.0080
 1.7330	23.9820
 1.7340	23.9560
 1.7350	23.9280
 1.7360	23.8980
 1.7370	23.8680
 1.7380	23.8370
 1.7390	23.8050
 1.7400	23.7740
 1.7410	23.7390
 1.7420	23.7020
 1.7430	23.6640
 1.7440	23.6250
 1.7450	23.5840
 1.7460	23.5400
 1.7470	23.4970
 1.7480	23.4520
 1.7490	23.4080
 1.7500	23.3650
 1.7510	23.3230
 1.7520	23.2820
 1.7530	23.2400
 1.7540	23.1980
 1.7550	23.1570
 1.7560	23.1160
 1.7570	23.0790
 1.7580	23.0410
 1.7590	23.0040
 1.7600	22.9680
 1.7610	22.9350
 1.7620	22.9020
 1.7630	22.8700
 1.7640	22.8380
 1.7650	22.8050
 1.7660	22.7750
 1.7670	22.7480
 1.7680	22.7210
 1.7690	22.6980
 1.7700	22.6740
 1.7710	22.6490
 1.7720	22.6250
 1.7730	22.6020
 1.7740	22.5800
 1.7750	22.5570
 1.7760	22.5350
 1.7770	22.5130
 1.7780	22.4930
 1.7790	22.4740
 1.7800	22.4570
 1.7810	22.4400
 1.7820	22.4260
 1.7830	22.4150
 1.7840	22.4030
 1.7850	22.3910
 1.7860	22.3800
 1.7870	22.3680
 1.7880	22.3600
 1.7890	22.3540
 1.7900	22.3500
 1.7910	22.3470
 1.7920	22.3430
 1.7930	22.3410
 1.7940	22.3410
 1.7950	22.3420
 1.7960	22.3450
 1.7970	22.3480
 1.7980	22.3510
 1.7990	22.3550
 1.8000	22.3590
 1.8010	22.3630
 1.8020	22.3690
 1.8030	22.3730
 1.8040	22.3760
 1.8050	22.3800
 1.8060	22.3830
 1.8070	22.3880
 1.8080	22.3950
 1.8090	22.3990
 1.8100	22.4040
 1.8110	22.4070
 1.8120	22.4090
 1.8130	22.4140
 1.8140	22.4160
 1.8150	22.4190
 1.8160	22.4220
 1.8170	22.4230
 1.8180	22.4260
 1.8190	22.4260
 1.8200	22.4250
 1.8210	22.4200
 1.8220	22.4170
 1.8230	22.4110
 1.8240	22.4060
 1.8250	22.4040
 1.8260	22.3980
 1.8270	22.3920
 1.8280	22.3860
 1.8290	22.3800
 1.8300	22.3740
 1.8310	22.3680
 1.8320	22.3620
 1.8330	22.3560
 1.8340	22.3500
 1.8350	22.3500
 1.8360	22.3190
 1.8370	22.2880
 1.8380	22.2520
 1.8390	22.2130
 1.8400	22.1720
 1.8410	22.1240
 1.8420	22.0710
 1.8430	22.0130
 1.8440	21.9510
 1.8450	21.8830
 1.8460	21.8080
 1.8470	21.7290
 1.8480	21.6420
 1.8490	21.5480
 1.8500	21.4470
 1.8510	21.3420
 1.8520	21.2240
 1.8530	21.0970
 1.8540	20.9610
 1.8550	20.8110
 1.8560	20.6490
 1.8570	20.4740
 1.8580	20.2910
 1.8590	20.0970
 1.8600	19.8940
 1.8610	19.6770
 1.8620	19.4480
 1.8630	19.2060
 1.8640	18.9460
 1.8650	18.6730
 1.8660	18.3910
 1.8670	18.0910
 1.8680	17.7750
 1.8690	17.4490
 1.8700	17.1090
 1.8710	16.7540
 1.8720	16.3910
 1.8730	16.0160
 1.8740	15.6310
 1.8750	15.2400
 1.8760	14.8350
 1.8770	14.4290
 1.8780	14.0210
 1.8790	13.6070
 1.8800	13.2010
 1.8810	12.7990
 1.8820	12.3980
 1.8830	11.9980
 1.8840	11.6050
 1.8850	11.2140
 1.8860	10.8310
 1.8870	10.4610
 1.8880	10.0990
 1.8890	 9.7540
 1.8900	 9.4260
 1.8910	 9.1130
 1.8920	 8.8120
 1.8930	 8.5320
 1.8940	 8.2710
 1.8950	 8.0260
 1.8960	 7.8000
 1.8970	 7.5890
 1.8980	 7.3950
 1.8990	 7.2200
 1.9000	 7.0580
 1.9010	 6.9130
 1.9020	 6.7810
 1.9030	 6.6650
 1.9040	 6.5570
 1.9050	 6.4610
 1.9060	 6.3760
 1.9070	 6.2980
 1.9080	 6.2300
 1.9090	 6.1690
 1.9100	 6.1160
 1.9110	 6.0680
 1.9120	 6.0270
 1.9130	 5.9890
 1.9140	 5.9560
 1.9150	 5.9270
 1.9160	 5.9020
 1.9170	 5.8800
 1.9180	 5.8610
 1.9190	 5.8440
 1.9200	 5.8300
 1.9210	 5.8160
 1.9220	 5.8050
 1.9230	 5.7960
 1.9240	 5.7900
 1.9250	 5.7860
 1.9260	 5.7840
 1.9270	 5.7840
 1.9280	 5.7860
 1.9290	 5.7870
 1.9300	 5.7920
 1.9310	 5.7970
 1.9320	 5.8010
 1.9330	 5.8080
 1.9340	 5.8170
 1.9350	 5.8270
 1.9360	 5.8410
 1.9370	 5.8550
 1.9380	 5.8700
 1.9390	 5.8840
 1.9400	 5.9020
 1.9410	 5.9200
 1.9420	 5.9380
 1.9430	 5.9580
 1.9440	 5.9780
 1.9450	 5.9960
 1.9460	 6.0170
 1.9470	 6.0400
 1.9480	 6.0630
 1.9490	 6.0860
 1.9500	 6.1110
 1.9510	 6.1380
 1.9520	 6.1660
 1.9530	 6.1930
 1.9540	 6.2220
 1.9550	 6.2510
 1.9560	 6.2790
 1.9570	 6.3100
 1.9580	 6.3420
 1.9590	 6.3750
 1.9600	 6.4090
 1.9610	 6.4430
 1.9620	 6.4790
 1.9630	 6.5160
 1.9640	 6.5530
 1.9650	 6.5900
 1.9660	 6.6270
 1.9670	 6.6660
 1.9680	 6.7050
 1.9690	 6.7440
 1.9700	 6.7850
 1.9710	 6.8250
 1.9720	 6.8670
 1.9730	 6.9100
 1.9740	 6.9550
 1.9750	 6.9990
 1.9760	 7.0440
 1.9770	 7.0910
 1.9780	 7.1360
 1.9790	 7.1820
 1.9800	 7.2290
 1.9810	 7.2770
 1.9820	 7.3270
 1.9830	 7.3760
 1.9840	 7.4250
 1.9850	 7.4750
 1.9860	 7.5230
 1.9870	 7.5710
 1.9880	 7.6210
 1.9890	 7.6730
 1.9900	 7.7230
 1.9910	 7.7750
 1.9920	 7.8270
 1.9930	 7.8800
 1.9940	 7.9310
 1.9950	 7.9820
 1.9960	 8.0340
 1.9970	 8.0840
 1.9980	 8.1360
 1.9990	 8.1910
 2.0000	 8.2450
 2.0010	 8.2990
 2.0020	 8.3560
 2.0030	 8.4090
 2.0040	 8.4620
 2.0050	 8.5150
 2.0060	 8.5670
 2.0070	 8.6200
 2.0080	 8.6750
 2.0090	 8.7280
 2.0100	 8.7810
 2.0110	 8.8340
 2.0120	 8.8880
 2.0130	 8.9400
 2.0140	 8.9930
 2.0150	 9.0440
 2.0160	 9.0940
 2.0170	 9.1440
 2.0180	 9.1940
 2.0190	 9.2450
 2.0200	 9.2950
 2.0210	 9.3450
 2.0220	 9.3940
 2.0230	 9.4410
 2.0240	 9.4890
 2.0250	 9.5380
 2.0260	 9.5860
 2.0270	 9.6340
 2.0280	 9.6840
 2.0290	 9.7280
 2.0300	 9.7700
 2.0310	 9.8130
 2.0320	 9.8530
 2.0330	 9.8940
 2.0340	 9.9360
 2.0350	 9.9780
 2.0360	10.0210
 2.0370	10.0620
 2.0380	10.1020
 2.0390	10.1410
 2.0400	10.1780
 2.0410	10.2150
 2.0420	10.2510
 2.0430	10.2860
 2.0440	10.3220
 2.0450	10.3560
 2.0460	10.3930
 2.0470	10.4310
 2.0480	10.4670
 2.0490	10.5000
 2.0500	10.5360
 2.0510	10.5700
 2.0520	10.6040
 2.0530	10.6410
 2.0540	10.6760
 2.0550	10.7080
 2.0560	10.7430
 2.0570	10.7780
 2.0580	10.8150
 2.0590	10.8520
 2.0600	10.8910
 2.0610	10.9280
 2.0620	10.9640
 2.0630	11.0010
 2.0640	11.0370
 2.0650	11.0730
 2.0660	11.1080
 2.0670	11.1450
 2.0680	11.1840
 2.0690	11.2220
 2.0700	11.2610
 2.0710	11.3000
 2.0720	11.3360
 2.0730	11.3740
 2.0740	11.4120
 2.0750	11.4510
 2.0760	11.4880
 2.0770	11.5260
 2.0780	11.5610
 2.0790	11.5950
 2.0800	11.6300
 2.0810	11.6640
 2.0820	11.7000
 2.0830	11.7370
 2.0840	11.7740
 2.0850	11.8090
 2.0860	11.8450
 2.0870	11.8800
 2.0880	11.9170
 2.0890	11.9530
 2.0900	11.9890
 2.0910	12.0250
 2.0920	12.0610
 2.0930	12.0950
 2.0940	12.1280
 2.0950	12.1620
 2.0960	12.1950
 2.0970	12.2290
 2.0980	12.2670
 2.0990	12.3020
 2.1000	12.3390
 2.1010	12.3750
 2.1020	12.4090
 2.1030	12.4420
 2.1040	12.4740
 2.1050	12.5070
 2.1060	12.5390
 2.1070	12.5680
 2.1080	12.6010
 2.1090	12.6340
 2.1100	12.6680
 2.1110	12.7080
 2.1120	12.7440
 2.1130	12.7790
 2.1140	12.8120
 2.1150	12.8400
 2.1160	12.8700
 2.1170	12.9000
 2.1180	12.9300
 2.1190	12.9620
 2.1200	12.9920
 2.1210	13.0220
 2.1220	13.0520
 2.1230	13.0820
 2.1240	13.1140
 2.1250	13.1430
 2.1260	13.1730
 2.1270	13.2000
 2.1280	13.2230
 2.1290	13.2470
 2.1300	13.2680
 2.1310	13.2910
 2.1320	13.3140
 2.1330	13.3370
 2.1340	13.3610
 2.1350	13.3850
 2.1360	13.4090
 2.1370	13.4330
 2.1380	13.4590
 2.1390	13.4830
 2.1400	13.5070
 2.1410	13.5290
 2.1420	13.5520
 2.1430	13.5740
 2.1440	13.5950
 2.1450	13.6160
 2.1460	13.6390
 2.1470	13.6630
 2.1480	13.6860
 2.1490	13.7120
 2.1500	13.7350
 2.1510	13.7550
 2.1520	13.7760
 2.1530	13.7940
 2.1540	13.8150
 2.1550	13.8390
 2.1560	13.8610
 2.1570	13.8830
 2.1580	13.9050
 2.1590	13.9230
 2.1600	13.9430
 2.1610	13.9670
 2.1620	13.9900
 2.1630	14.0110
 2.1640	14.0310
 2.1650	14.0490
 2.1660	14.0620
 2.1670	14.0810
 2.1680	14.1040
 2.1690	14.1240
 2.1700	14.1460
 2.1710	14.1660
 2.1720	14.1830
 2.1730	14.2010
 2.1740	14.2210
 2.1750	14.2390
 2.1760	14.2570
 2.1770	14.2760
 2.1780	14.2950
 2.1790	14.3150
 2.1800	14.3350
 2.1810	14.3570
 2.1820	14.3770
 2.1830	14.3990
 2.1840	14.4220
 2.1850	14.4480
 2.1860	14.4700
 2.1870	14.4920
 2.1880	14.5140
 2.1890	14.5340
 2.1900	14.5540
 2.1910	14.5770
 2.1920	14.5960
 2.1930	14.6140
 2.1940	14.6320
 2.1950	14.6500
 2.1960	14.6680
 2.1970	14.6830
 2.1980	14.7020
 2.1990	14.7250
 2.2000	14.7440
 2.2010	14.7640
 2.2020	14.7820
 2.2030	14.7950
 2.2040	14.8080
 2.2050	14.8220
 2.2060	14.8350
 2.2070	14.8460
 2.2080	14.8550
 2.2090	14.8630
 2.2100	14.8680
 2.2110	14.8750
 2.2120	14.8840
 2.2130	14.8900
 2.2140	14.8970
 2.2150	14.9030
 2.2160	14.9060
 2.2170	14.9110
 2.2180	14.9170
 2.2190	14.9200
 2.2200	14.9210
 2.2210	14.9210
 2.2220	14.9220
 2.2230	14.9180
 2.2240	14.9110
 2.2250	14.9030
 2.2260	14.8920
 2.2270	14.8810
 2.2280	14.8700
 2.2290	14.8570
 2.2300	14.8410
 2.2310	14.8230
 2.2320	14.8020
 2.2330	14.7790
 2.2340	14.7530
 2.2350	14.7230
 2.2360	14.6930
 2.2370	14.6610
 2.2380	14.6280
 2.2390	14.5950
 2.2400	14.5590
 2.2410	14.5220
 2.2420	14.4810
 2.2430	14.4380
 2.2440	14.3920
 2.2450	14.3420
 2.2460	14.2920
 2.2470	14.2410
 2.2480	14.1910
 2.2490	14.1420
 2.2500	14.0900
 2.2510	14.0370
 2.2520	13.9840
 2.2530	13.9280
 2.2540	13.8720
 2.2550	13.8170
 2.2560	13.7620
 2.2570	13.7030
 2.2580	13.6470
 2.2590	13.5940
 2.2600	13.5390
 2.2610	13.4840
 2.2620	13.4310
 2.2630	13.3740
 2.2640	13.3140
 2.2650	13.2550
 2.2660	13.1990
 2.2670	13.1430
 2.2680	13.0880
 2.2690	13.0350
 2.2700	12.9830
 2.2710	12.9340
 2.2720	12.8900
 2.2730	12.8430
 2.2740	12.7990
 2.2750	12.7550
 2.2760	12.7100
 2.2770	12.6660
 2.2780	12.6230
 2.2790	12.5820
 2.2800	12.5410
 2.2810	12.5010
 2.2820	12.4650
 2.2830	12.4260
 2.2840	12.3850
 2.2850	12.3450
 2.2860	12.3070
 2.2870	12.2670
 2.2880	12.2270
 2.2890	12.1870
 2.2900	12.1510
 2.2910	12.1070
 2.2920	12.0590
 2.2930	12.0150
 2.2940	11.9680
 2.2950	11.9240
 2.2960	11.8890
 2.2970	11.8500
 2.2980	11.8120
 2.2990	11.7680
 2.3000	11.7330
 2.3010	11.6970
 2.3020	11.6540
 2.3030	11.6200
 2.3040	11.5830
 2.3050	11.5460
 2.3060	11.5150
 2.3070	11.4850
 2.3080	11.4560
 2.3090	11.4320
 2.3100	11.4140
 2.3110	11.3990
 2.3120	11.3840
 2.3130	11.3710
 2.3140	11.3580
 2.3150	11.3480
 2.3160	11.3340
 2.3170	11.3190
 2.3180	11.3040
 2.3190	11.2890
 2.3200	11.2710
 2.3210	11.2550
 2.3220	11.2340
 2.3230	11.2040
 2.3240	11.1800
 2.3250	11.1590
 2.3260	11.1330
 2.3270	11.1090
 2.3280	11.0780
 2.3290	11.0400
 2.3300	11.0040
 2.3310	10.9640
 2.3320	10.9270
 2.3330	10.8890
 2.3340	10.8530
 2.3350	10.8170
 2.3360	10.7800
 2.3370	10.7410
 2.3380	10.7050
 2.3390	10.6710
 2.3400	10.6360
 2.3410	10.6010
 2.3420	10.5650
 2.3430	10.5250
 2.3440	10.4860
 2.3450	10.4470
 2.3460	10.4100
 2.3470	10.3730
 2.3480	10.3390
 2.3490	10.3070
 2.3500	10.2800
 2.3510	10.2560
 2.3520	10.2340
 2.3530	10.2160
 2.3540	10.2000
 2.3550	10.1780
 2.3560	10.1630
 2.3570	10.1420
 2.3580	10.1090
 2.3590	10.0760
 2.3600	10.0420
 2.3610	10.0100
 2.3620	 9.9780
 2.3630	 9.9490
 2.3640	 9.9230
 2.3650	 9.8960
 2.3660	 9.8730
 2.3670	 9.8490
 2.3680	 9.8250
 2.3690	 9.8030
 2.3700	 9.7770
 2.3710	 9.7500
 2.3720	 9.7210
 2.3730	 9.6860
 2.3740	 9.6510
 2.3750	 9.6200
 2.3760	 9.5870
 2.3770	 9.5500
 2.3780	 9.5110
 2.3790	 9.4760
 2.3800	 9.4400
 2.3810	 9.4110
 2.3820	 9.3940
 2.3830	 9.3730
 2.3840	 9.3450
 2.3850	 9.3210
 2.3860	 9.2930
 2.3870	 9.2600
 2.3880	 9.2280
 2.3890	 9.1940
 2.3900	 9.1590
 2.3910	 9.1200
 2.3920	 9.0880
 2.3930	 9.0610
 2.3940	 9.0300
 2.3950	 9.0070
 2.3960	 8.9780
 2.3970	 8.9430
 2.3980	 8.9040
 2.3990	 8.8600
 2.4000	 8.8190
 2.4010	 8.7770
 2.4020	 8.7480
 2.4030	 8.7250
 2.4040	 8.6950
 2.4050	 8.6720
 2.4060	 8.6400
 2.4070	 8.5920
 2.4080	 8.5500
 2.4090	 8.5060
 2.4100	 8.4690
 2.4110	 8.4430
 2.4120	 8.4150
 2.4130	 8.3890
 2.4140	 8.3540
 2.4150	 8.3170
 2.4160	 8.2840
 2.4170	 8.2410
 2.4180	 8.1990
 2.4190	 8.1670
 2.4200	 8.1350
 2.4210	 8.1040
 2.4220	 8.0760
 2.4230	 8.0390
 2.4240	 8.0000
 2.4250	 7.9700
 2.4260	 7.9310
 2.4270	 7.8930
 2.4280	 7.8540
 2.4290	 7.8060
 2.4300	 7.7750
 2.4310	 7.7530
 2.4320	 7.7290
 2.4330	 7.7100
 2.4340	 7.6760
 2.4350	 7.6360
 2.4360	 7.5980
 2.4370	 7.5560
 2.4380	 7.5220
 2.4390	 7.4940
 2.4400	 7.4670
 2.4410	 7.4340
 2.4420	 7.4040
 2.4430	 7.3650
 2.4440	 7.3150
 2.4450	 7.2770
 2.4460	 7.2390
 2.4470	 7.2030
 2.4480	 7.1720
 2.4490	 7.1330
 2.4500	 7.0960
 2.4510	 7.0670
 2.4520	 7.0450
 2.4530	 7.0360
 2.4540	 7.0200
 2.4550	 6.9850
 2.4560	 6.9440
 2.4570	 6.8890
 2.4580	 6.8470
 2.4590	 6.8240
 2.4600	 6.8030
 2.4610	 6.7870
 2.4620	 6.7690
 2.4630	 6.7580
 2.4640	 6.7400
 2.4650	 6.7120
 2.4660	 6.7020
 2.4670	 6.6760
 2.4680	 6.6460
 2.4690	 6.6110
 2.4700	 6.5850
 2.4710	 6.5620
 2.4720	 6.5390
 2.4730	 6.5400
 2.4740	 6.5160
 2.4750	 6.4700
 2.4760	 6.4400
 2.4770	 6.3960
 2.4780	 6.3720
 2.4790	 6.3710
 2.4800	 6.3530
 2.4810	 6.3360
 2.4820	 6.3190
 2.4830	 6.2980
 2.4840	 6.2860
 2.4850	 6.2870
 2.4860	 6.2800
 2.4870	 6.2760
 2.4880	 6.2720
 2.4890	 6.2380
 2.4900	 6.2110
 2.4910	 6.1760
 2.4920	 6.1490
 2.4930	 6.1520
 2.4940	 6.1630
 2.4950	 6.1790
 2.4960	 6.1900
 2.4970	 6.1790
 2.4980	 6.1370
 2.4990	 6.1210
 2.5000	 6.1190
