Name: Betula lenta
Type: Vegetation
Class: Tree
Genus: Betula
Species: lenta
Sample No.: BELE-1-55
Owner: UCSB
Wavelength Range: TIR
Origin: USA; Massachusetts; Harvard Forest
Collection Date: 7/8/2013
Description: Samples were collected as part of NSF Macrosystem Biology proposal titled: Collaborative Research: Thermal controls on ecosystem metabolism and function: scaling from leaves to canopies to regions. Samples were collected and overnighted to JPL facilities for processing. The same leaves were processed in the Nicolet and then measured using the ASD.
Measurement: Hemispherical reflectance
First Column: X
Second Column: Y
X Units: Wavelength (micrometers)
Y Units: Reflectance (percentage)
First X Value: 2.501
Last X Value: 15.387
Number of X Values: 1737
Additional Information: vegetation.tree.betula.lenta.tir.bele-1-55.ucsb.nicolet.ancillary.txt

 2.5010	11.9950
 2.5030	11.8580
 2.5040	12.1720
 2.5050	12.1760
 2.5060	11.8970
 2.5070	11.7530
 2.5090	11.9270
 2.5100	11.8660
 2.5110	11.7390
 2.5120	11.8040
 2.5140	11.9870
 2.5150	11.6970
 2.5160	11.4730
 2.5170	11.5200
 2.5180	11.5100
 2.5200	11.4410
 2.5210	11.4600
 2.5220	11.2390
 2.5230	11.1320
 2.5250	11.2100
 2.5260	11.4560
 2.5270	11.4780
 2.5280	11.5450
 2.5290	11.4920
 2.5310	11.4870
 2.5320	11.4380
 2.5330	11.6090
 2.5340	11.8270
 2.5360	11.5630
 2.5370	11.2870
 2.5380	11.4570
 2.5390	11.4380
 2.5410	11.3540
 2.5420	11.5590
 2.5430	11.5690
 2.5440	11.3790
 2.5460	11.3600
 2.5470	11.3660
 2.5480	11.3850
 2.5490	11.4190
 2.5510	11.4760
 2.5520	11.4700
 2.5530	11.4120
 2.5540	11.2800
 2.5560	11.2910
 2.5570	11.4440
 2.5580	11.5590
 2.5590	11.3550
 2.5610	11.3140
 2.5620	11.4750
 2.5630	11.7420
 2.5640	11.7530
 2.5660	11.7690
 2.5670	11.7120
 2.5680	11.5770
 2.5700	11.3540
 2.5710	11.4910
 2.5720	11.6140
 2.5730	11.7420
 2.5750	11.6330
 2.5760	11.4090
 2.5770	11.3160
 2.5790	11.1640
 2.5800	11.1080
 2.5810	11.0450
 2.5820	11.0200
 2.5840	11.1900
 2.5850	11.1750
 2.5860	10.9270
 2.5880	11.0210
 2.5890	11.3500
 2.5900	11.1690
 2.5910	11.1400
 2.5930	11.1480
 2.5940	10.9040
 2.5950	10.6310
 2.5970	10.4980
 2.5980	10.5250
 2.5990	10.7240
 2.6000	10.5380
 2.6020	10.4390
 2.6030	10.3010
 2.6040	10.3180
 2.6060	10.3060
 2.6070	10.1690
 2.6080	10.1240
 2.6100	10.3390
 2.6110	10.1410
 2.6120	10.0550
 2.6140	10.1160
 2.6150	10.1170
 2.6160	 9.8150
 2.6180	 9.6020
 2.6190	 9.5100
 2.6200	 9.4040
 2.6220	 9.3790
 2.6230	 9.3440
 2.6240	 9.0630
 2.6260	 8.9020
 2.6270	 8.9470
 2.6280	 8.8980
 2.6300	 8.6050
 2.6310	 8.6360
 2.6320	 8.6680
 2.6340	 8.8340
 2.6350	 8.6320
 2.6360	 8.3110
 2.6380	 8.0870
 2.6390	 8.2110
 2.6400	 8.1320
 2.6420	 7.8870
 2.6430	 7.8640
 2.6440	 7.8590
 2.6460	 7.6220
 2.6470	 7.5670
 2.6480	 7.6130
 2.6500	 7.5620
 2.6510	 7.3600
 2.6520	 7.2610
 2.6540	 7.1810
 2.6550	 7.2250
 2.6560	 7.0360
 2.6580	 6.7190
 2.6590	 6.6580
 2.6610	 6.4910
 2.6620	 6.4370
 2.6630	 6.5720
 2.6650	 6.3230
 2.6660	 5.8360
 2.6670	 5.8090
 2.6690	 6.1980
 2.6700	 6.4130
 2.6720	 6.2310
 2.6730	 5.9720
 2.6740	 5.7190
 2.6760	 5.2880
 2.6770	 5.1210
 2.6780	 5.1750
 2.6800	 5.4240
 2.6810	 5.6660
 2.6830	 5.8730
 2.6840	 5.7080
 2.6850	 5.4490
 2.6870	 5.1640
 2.6880	 5.0000
 2.6900	 4.9290
 2.6910	 4.9880
 2.6920	 4.8360
 2.6940	 4.7270
 2.6950	 4.7080
 2.6970	 4.8070
 2.6980	 4.6810
 2.6990	 4.6300
 2.7010	 4.8090
 2.7020	 5.1020
 2.7040	 5.0810
 2.7050	 4.7470
 2.7060	 4.5280
 2.7080	 4.5130
 2.7090	 4.4300
 2.7110	 4.4910
 2.7120	 4.5940
 2.7130	 4.7710
 2.7150	 4.6650
 2.7160	 4.5030
 2.7180	 4.4860
 2.7190	 4.6600
 2.7210	 4.4780
 2.7220	 4.1180
 2.7230	 4.1850
 2.7250	 4.5590
 2.7260	 4.5230
 2.7280	 4.5890
 2.7290	 4.3370
 2.7310	 4.1370
 2.7320	 4.1180
 2.7330	 4.2410
 2.7350	 4.2880
 2.7360	 4.2580
 2.7380	 4.1850
 2.7390	 4.3080
 2.7410	 4.3010
 2.7420	 4.4000
 2.7440	 4.3020
 2.7450	 4.3030
 2.7470	 4.4390
 2.7480	 4.5150
 2.7490	 4.2380
 2.7510	 4.5600
 2.7520	 4.4220
 2.7540	 3.7150
 2.7550	 3.5420
 2.7570	 4.0230
 2.7580	 4.2670
 2.7600	 4.1250
 2.7610	 4.1960
 2.7630	 4.3700
 2.7640	 4.5240
 2.7660	 4.5280
 2.7670	 4.0700
 2.7680	 4.2360
 2.7700	 4.4440
 2.7710	 4.5740
 2.7730	 4.5100
 2.7740	 4.4420
 2.7760	 4.1730
 2.7770	 4.0730
 2.7790	 4.4170
 2.7800	 4.7750
 2.7820	 4.2650
 2.7830	 4.0640
 2.7850	 4.3020
 2.7860	 4.3640
 2.7880	 4.2180
 2.7890	 4.1780
 2.7910	 4.0240
 2.7920	 4.0820
 2.7940	 4.0520
 2.7950	 4.0130
 2.7970	 4.1070
 2.7980	 4.0400
 2.8000	 4.0150
 2.8010	 4.2140
 2.8030	 3.9920
 2.8040	 3.8720
 2.8060	 4.1140
 2.8070	 4.2820
 2.8090	 4.2920
 2.8110	 4.3020
 2.8120	 4.0430
 2.8140	 3.7630
 2.8150	 3.6030
 2.8170	 3.7350
 2.8180	 3.7460
 2.8200	 3.7850
 2.8210	 3.7380
 2.8230	 3.4790
 2.8240	 3.4330
 2.8260	 3.7280
 2.8270	 3.7610
 2.8290	 3.9120
 2.8300	 3.9080
 2.8320	 3.9070
 2.8340	 3.9240
 2.8350	 3.8130
 2.8370	 3.5850
 2.8380	 3.5960
 2.8400	 3.7150
 2.8410	 3.8370
 2.8430	 3.8400
 2.8440	 3.8440
 2.8460	 3.7150
 2.8480	 3.7490
 2.8490	 3.7770
 2.8510	 3.7710
 2.8520	 3.6540
 2.8540	 3.5540
 2.8550	 3.6360
 2.8570	 3.8250
 2.8590	 3.8640
 2.8600	 4.0630
 2.8620	 4.1230
 2.8630	 3.9630
 2.8650	 3.5860
 2.8660	 3.3680
 2.8680	 3.3260
 2.8700	 3.8330
 2.8710	 4.0540
 2.8730	 3.6360
 2.8740	 3.4120
 2.8760	 3.5310
 2.8780	 3.3980
 2.8790	 3.1880
 2.8810	 2.8170
 2.8820	 3.2480
 2.8840	 3.6190
 2.8860	 3.3650
 2.8870	 3.1850
 2.8890	 3.0930
 2.8900	 2.7930
 2.8920	 3.3270
 2.8940	 3.9710
 2.8950	 3.8570
 2.8970	 3.4400
 2.8980	 3.1680
 2.9000	 3.2970
 2.9020	 3.4530
 2.9030	 3.3320
 2.9050	 3.2990
 2.9070	 3.3200
 2.9080	 3.3660
 2.9100	 3.2640
 2.9120	 3.4240
 2.9130	 3.6320
 2.9150	 3.8550
 2.9160	 3.7790
 2.9180	 3.6360
 2.9200	 3.5830
 2.9210	 3.6970
 2.9230	 3.7990
 2.9250	 3.8960
 2.9260	 3.7100
 2.9280	 3.7760
 2.9300	 3.6330
 2.9310	 3.2690
 2.9330	 3.2800
 2.9350	 3.4910
 2.9360	 3.4420
 2.9380	 3.3080
 2.9400	 3.3640
 2.9410	 3.4310
 2.9430	 3.4610
 2.9450	 3.2790
 2.9460	 3.5670
 2.9480	 3.9800
 2.9500	 4.0730
 2.9510	 3.9960
 2.9530	 4.0750
 2.9550	 3.8340
 2.9560	 3.3040
 2.9580	 3.1370
 2.9600	 3.3080
 2.9610	 3.6910
 2.9630	 4.4690
 2.9650	 4.1450
 2.9660	 3.3560
 2.9680	 4.1020
 2.9700	 6.0620
 2.9720	 5.1160
 2.9730	 3.3960
 2.9750	 2.1480
 2.9770	 3.5970
 2.9780	 6.3540
 2.9800	 5.7380
 2.9820	 3.5170
 2.9840	 2.1140
 2.9850	 2.7250
 2.9870	 3.5800
 2.9890	 3.5710
 2.9900	 2.8440
 2.9920	 2.3590
 2.9940	 1.3640
 2.9960	 1.9740
 2.9970	 2.7650
 2.9990	 3.2000
 3.0010	 3.5360
 3.0030	 4.2190
 3.0040	 3.6200
 3.0060	 3.8640
 3.0080	 4.2930
 3.0100	 4.5230
 3.0110	 4.5350
 3.0130	 3.5060
 3.0150	 2.8490
 3.0170	 2.7890
 3.0180	 3.6730
 3.0200	 4.9620
 3.0220	 4.3350
 3.0240	 3.6320
 3.0250	 3.3230
 3.0270	 3.6310
 3.0290	 3.4990
 3.0310	 4.2040
 3.0320	 4.7640
 3.0340	 4.6240
 3.0360	 4.3360
 3.0380	 4.0520
 3.0400	 4.3800
 3.0410	 5.7580
 3.0430	 5.8920
 3.0450	 4.9980
 3.0470	 3.9630
 3.0480	 2.1460
 3.0500	 0.4470
 3.0520	 -0.981
 3.0540	 0.1300
 3.0560	 1.1200
 3.0570	 1.2900
 3.0590	 3.0920
 3.0610	 4.3500
 3.0630	 3.8870
 3.0650	 4.1480
 3.0660	 5.8360
 3.0680	 5.1790
 3.0700	 5.7970
 3.0720	 5.6090
 3.0740	 4.7170
 3.0760	 4.4470
 3.0770	 3.7360
 3.0790	 3.7790
 3.0810	 4.0910
 3.0830	 4.0390
 3.0850	 4.0270
 3.0870	 4.1990
 3.0880	 4.2710
 3.0900	 4.1920
 3.0920	 4.4720
 3.0940	 4.7120
 3.0960	 4.4150
 3.0980	 3.7710
 3.0990	 3.6270
 3.1010	 3.8180
 3.1030	 3.9710
 3.1050	 3.7750
 3.1070	 3.7350
 3.1090	 4.0580
 3.1110	 4.1310
 3.1120	 3.7840
 3.1140	 4.0860
 3.1160	 4.9950
 3.1180	 4.7510
 3.1200	 4.1220
 3.1220	 3.9820
 3.1240	 4.0070
 3.1260	 4.1780
 3.1270	 4.8130
 3.1290	 5.1380
 3.1310	 4.9800
 3.1330	 5.1580
 3.1350	 4.9710
 3.1370	 3.7330
 3.1390	 3.3890
 3.1410	 4.2040
 3.1430	 5.3740
 3.1450	 6.0100
 3.1460	 5.6310
 3.1480	 4.6580
 3.1500	 3.4560
 3.1520	 2.1110
 3.1540	 3.5720
 3.1560	 4.8860
 3.1580	 3.1960
 3.1600	 2.6270
 3.1620	 4.3570
 3.1640	 3.8330
 3.1660	 3.9110
 3.1680	 5.2780
 3.1700	 6.5260
 3.1710	 5.5560
 3.1730	 4.5250
 3.1750	 5.1270
 3.1770	 3.2480
 3.1790	 5.5090
 3.1810	 6.0510
 3.1830	 6.1090
 3.1850	 4.6570
 3.1870	 3.5570
 3.1890	 3.9560
 3.1910	 4.6440
 3.1930	 5.0050
 3.1950	 4.6820
 3.1970	 4.4670
 3.1990	 4.1980
 3.2010	 4.0690
 3.2030	 4.3320
 3.2050	 4.3710
 3.2070	 4.3280
 3.2090	 4.3480
 3.2110	 4.0720
 3.2130	 4.0150
 3.2150	 4.1400
 3.2170	 4.0610
 3.2190	 4.2180
 3.2210	 4.2670
 3.2230	 4.1160
 3.2250	 4.0090
 3.2270	 4.3580
 3.2290	 4.3800
 3.2310	 4.2590
 3.2330	 4.2180
 3.2350	 3.9920
 3.2370	 3.8200
 3.2390	 4.0990
 3.2410	 3.8860
 3.2430	 3.8590
 3.2450	 3.9530
 3.2470	 4.0600
 3.2490	 4.2230
 3.2510	 4.0030
 3.2530	 3.8610
 3.2550	 4.1080
 3.2570	 4.1920
 3.2590	 4.3960
 3.2610	 4.2130
 3.2630	 4.1760
 3.2650	 3.9240
 3.2670	 3.6620
 3.2690	 3.7450
 3.2720	 3.9160
 3.2740	 4.1130
 3.2760	 4.1510
 3.2780	 3.9720
 3.2800	 3.9750
 3.2820	 3.9450
 3.2840	 4.1180
 3.2860	 4.2530
 3.2880	 4.3620
 3.2900	 4.3080
 3.2920	 3.9510
 3.2940	 3.9590
 3.2960	 4.2640
 3.2990	 4.1360
 3.3010	 3.9300
 3.3030	 3.6370
 3.3050	 3.4240
 3.3070	 3.5480
 3.3090	 4.1050
 3.3110	 4.4970
 3.3130	 4.3270
 3.3150	 3.7760
 3.3180	 3.7590
 3.3200	 4.1210
 3.3220	 4.1090
 3.3240	 3.9490
 3.3260	 3.8360
 3.3280	 3.6880
 3.3300	 3.9140
 3.3330	 3.9060
 3.3350	 3.9080
 3.3370	 3.9740
 3.3390	 3.7700
 3.3410	 3.5850
 3.3430	 3.6150
 3.3450	 3.4030
 3.3480	 3.3400
 3.3500	 3.4730
 3.3520	 3.9170
 3.3540	 3.9280
 3.3560	 3.6360
 3.3580	 3.6240
 3.3610	 3.5260
 3.3630	 3.4630
 3.3650	 3.6080
 3.3670	 3.6170
 3.3690	 3.7120
 3.3720	 3.4830
 3.3740	 3.2800
 3.3760	 3.2220
 3.3780	 3.3390
 3.3800	 3.4750
 3.3830	 3.5040
 3.3850	 3.5370
 3.3870	 3.3520
 3.3890	 2.9220
 3.3910	 3.0600
 3.3940	 3.1670
 3.3960	 2.9000
 3.3980	 2.6510
 3.4000	 2.6070
 3.4020	 2.6490
 3.4050	 2.6410
 3.4070	 2.5330
 3.4090	 2.5100
 3.4110	 2.5610
 3.4140	 2.7630
 3.4160	 2.8920
 3.4180	 3.2740
 3.4200	 4.0120
 3.4230	 5.1610
 3.4250	 6.4730
 3.4270	 8.0630
 3.4290	 9.2610
 3.4320	 9.4420
 3.4340	 8.6510
 3.4360	 7.7600
 3.4390	 6.9900
 3.4410	 6.4180
 3.4430	 6.0640
 3.4450	 5.7470
 3.4480	 5.5340
 3.4500	 5.3260
 3.4520	 5.2800
 3.4550	 5.1470
 3.4570	 4.9200
 3.4590	 5.0340
 3.4620	 4.8950
 3.4640	 4.9480
 3.4660	 5.0430
 3.4680	 5.0510
 3.4710	 4.8910
 3.4730	 4.9050
 3.4750	 4.9920
 3.4780	 4.9620
 3.4800	 4.9000
 3.4820	 4.8010
 3.4850	 4.3480
 3.4870	 4.1750
 3.4890	 4.2030
 3.4920	 3.9490
 3.4940	 3.5710
 3.4970	 3.5180
 3.4990	 3.4730
 3.5010	 3.5980
 3.5040	 3.8820
 3.5060	 4.6490
 3.5080	 6.2830
 3.5110	 8.2110
 3.5130	 8.8870
 3.5160	 8.1500
 3.5180	 7.1950
 3.5200	 6.6550
 3.5230	 6.2400
 3.5250	 5.9240
 3.5270	 5.5860
 3.5300	 5.4110
 3.5320	 5.4190
 3.5350	 5.3880
 3.5370	 5.2230
 3.5400	 5.1910
 3.5420	 5.1740
 3.5440	 5.1850
 3.5470	 4.9760
 3.5490	 4.9380
 3.5520	 5.1430
 3.5540	 5.1010
 3.5570	 4.9080
 3.5590	 4.9210
 3.5610	 4.9470
 3.5640	 4.9220
 3.5660	 4.8650
 3.5690	 4.7440
 3.5710	 4.7930
 3.5740	 4.8900
 3.5760	 4.7860
 3.5790	 4.8450
 3.5810	 4.9290
 3.5840	 4.8420
 3.5860	 4.6900
 3.5890	 4.6070
 3.5910	 4.6310
 3.5930	 4.9280
 3.5960	 4.8670
 3.5980	 4.8720
 3.6010	 4.7460
 3.6030	 4.8810
 3.6060	 5.0130
 3.6080	 4.7470
 3.6110	 4.5630
 3.6140	 4.9600
 3.6160	 5.1120
 3.6190	 4.9340
 3.6210	 4.6930
 3.6240	 4.7460
 3.6260	 4.7840
 3.6290	 4.7300
 3.6310	 4.6930
 3.6340	 4.7110
 3.6360	 4.6980
 3.6390	 4.6910
 3.6410	 4.7100
 3.6440	 4.7710
 3.6470	 4.6970
 3.6490	 4.7350
 3.6520	 4.7810
 3.6540	 4.8750
 3.6570	 4.8620
 3.6590	 4.8320
 3.6620	 4.7640
 3.6650	 4.7170
 3.6670	 4.6250
 3.6700	 4.6790
 3.6720	 4.7350
 3.6750	 4.7890
 3.6780	 4.7590
 3.6800	 4.8200
 3.6830	 4.9040
 3.6850	 4.8900
 3.6880	 4.7880
 3.6910	 4.7880
 3.6930	 4.7980
 3.6960	 4.8110
 3.6990	 4.8040
 3.7010	 4.8050
 3.7040	 4.6770
 3.7060	 4.7080
 3.7090	 4.8160
 3.7120	 4.8450
 3.7140	 4.7230
 3.7170	 4.8220
 3.7200	 4.8970
 3.7220	 4.8600
 3.7250	 4.8160
 3.7280	 4.9560
 3.7300	 4.9590
 3.7330	 4.8160
 3.7360	 4.9230
 3.7390	 5.1670
 3.7410	 5.1450
 3.7440	 5.2110
 3.7470	 5.1190
 3.7490	 5.0450
 3.7520	 5.2460
 3.7550	 5.4690
 3.7580	 5.4050
 3.7600	 5.1910
 3.7630	 5.0880
 3.7660	 5.1000
 3.7680	 5.0830
 3.7710	 5.2950
 3.7740	 5.3140
 3.7770	 5.0610
 3.7790	 5.0330
 3.7820	 5.2070
 3.7850	 5.3290
 3.7880	 5.4040
 3.7900	 5.4490
 3.7930	 5.4240
 3.7960	 5.5130
 3.7990	 5.7530
 3.8020	 5.7610
 3.8040	 5.6110
 3.8070	 5.4690
 3.8100	 5.6260
 3.8130	 5.6370
 3.8160	 5.4740
 3.8180	 5.4730
 3.8210	 5.7430
 3.8240	 5.7200
 3.8270	 5.5920
 3.8300	 5.4940
 3.8330	 5.4380
 3.8350	 5.3850
 3.8380	 5.5440
 3.8410	 5.8060
 3.8440	 6.0810
 3.8470	 6.1680
 3.8500	 6.0570
 3.8520	 5.9560
 3.8550	 5.7020
 3.8580	 5.6000
 3.8610	 5.7270
 3.8640	 5.7800
 3.8670	 5.7720
 3.8700	 5.7410
 3.8730	 5.8750
 3.8750	 5.9380
 3.8780	 5.8600
 3.8810	 5.7830
 3.8840	 5.6850
 3.8870	 5.6730
 3.8900	 5.7620
 3.8930	 5.8370
 3.8960	 5.8090
 3.8990	 5.7670
 3.9020	 5.8300
 3.9050	 5.7950
 3.9080	 5.8120
 3.9110	 5.9100
 3.9140	 5.8770
 3.9160	 5.7760
 3.9190	 5.8580
 3.9220	 5.8410
 3.9250	 5.7950
 3.9280	 5.7910
 3.9310	 5.8560
 3.9340	 5.8170
 3.9370	 5.7760
 3.9400	 5.7330
 3.9430	 5.8060
 3.9460	 5.8060
 3.9490	 5.7860
 3.9520	 5.7770
 3.9550	 5.8280
 3.9580	 5.8640
 3.9610	 5.9100
 3.9640	 5.8360
 3.9670	 5.8820
 3.9700	 5.9080
 3.9730	 5.9310
 3.9770	 5.8550
 3.9800	 5.7400
 3.9830	 5.7430
 3.9860	 5.7940
 3.9890	 5.7510
 3.9920	 5.7460
 3.9950	 5.7370
 3.9980	 5.7010
 4.0010	 5.6760
 4.0040	 5.7100
 4.0070	 5.7060
 4.0100	 5.7740
 4.0130	 5.8210
 4.0170	 5.7310
 4.0200	 5.6330
 4.0230	 5.6810
 4.0260	 5.7450
 4.0290	 5.7390
 4.0320	 5.7300
 4.0350	 5.7050
 4.0380	 5.6730
 4.0420	 5.7310
 4.0450	 5.7620
 4.0480	 5.6970
 4.0510	 5.6560
 4.0540	 5.5700
 4.0570	 5.5450
 4.0610	 5.7820
 4.0640	 5.8300
 4.0670	 5.6380
 4.0700	 5.5600
 4.0730	 5.7050
 4.0770	 5.7480
 4.0800	 5.6220
 4.0830	 5.5850
 4.0860	 5.6130
 4.0890	 5.4890
 4.0930	 5.5370
 4.0960	 5.6590
 4.0990	 5.6440
 4.1020	 5.5200
 4.1060	 5.4790
 4.1090	 5.6000
 4.1120	 5.6760
 4.1150	 5.6280
 4.1190	 5.5140
 4.1220	 5.4310
 4.1250	 5.4560
 4.1280	 5.5180
 4.1320	 5.4340
 4.1350	 5.3420
 4.1380	 5.3730
 4.1420	 5.3670
 4.1450	 5.4400
 4.1480	 5.4730
 4.1520	 5.4730
 4.1550	 5.4390
 4.1580	 5.3630
 4.1620	 5.3350
 4.1650	 5.4330
 4.1680	 5.4760
 4.1720	 5.4440
 4.1750	 5.3510
 4.1780	 5.2140
 4.1820	 5.2220
 4.1850	 5.2450
 4.1890	 5.2430
 4.1920	 5.2540
 4.1950	 5.2110
 4.1990	 5.2460
 4.2020	 5.1810
 4.2060	 5.1200
 4.2090	 5.1550
 4.2120	 5.4200
 4.2160	 5.3750
 4.2190	 5.2200
 4.2230	 5.2780
 4.2260	 5.6080
 4.2300	 5.6490
 4.2330	 5.6010
 4.2360	 5.4890
 4.2400	 5.4530
 4.2430	 5.8290
 4.2470	 5.6420
 4.2500	 5.2820
 4.2540	 5.2050
 4.2570	 5.2350
 4.2610	 5.6610
 4.2640	 6.0090
 4.2680	 5.6650
 4.2710	 5.3350
 4.2750	 5.2030
 4.2780	 5.0840
 4.2820	 5.1610
 4.2850	 5.1220
 4.2890	 5.0670
 4.2930	 5.0960
 4.2960	 5.1920
 4.3000	 5.1440
 4.3030	 5.1610
 4.3070	 5.0110
 4.3100	 4.9600
 4.3140	 5.0560
 4.3180	 5.0790
 4.3210	 4.9410
 4.3250	 4.8430
 4.3280	 4.8450
 4.3320	 4.9860
 4.3360	 5.0950
 4.3390	 4.9850
 4.3430	 4.9420
 4.3470	 4.9480
 4.3500	 4.7700
 4.3540	 4.6990
 4.3570	 4.7570
 4.3610	 4.6790
 4.3650	 4.6490
 4.3680	 4.7720
 4.3720	 4.7440
 4.3760	 4.6880
 4.3800	 4.6350
 4.3830	 4.7270
 4.3870	 4.8900
 4.3910	 4.9310
 4.3940	 4.8190
 4.3980	 4.7680
 4.4020	 4.7270
 4.4060	 4.6370
 4.4090	 4.6190
 4.4130	 4.5930
 4.4170	 4.5410
 4.4210	 4.5050
 4.4240	 4.4860
 4.4280	 4.5250
 4.4320	 4.5550
 4.4360	 4.5520
 4.4400	 4.6020
 4.4430	 4.6170
 4.4470	 4.5920
 4.4510	 4.6660
 4.4550	 4.6510
 4.4590	 4.5610
 4.4620	 4.5600
 4.4660	 4.5180
 4.4700	 4.5490
 4.4740	 4.6030
 4.4780	 4.5910
 4.4820	 4.5300
 4.4860	 4.5290
 4.4900	 4.6920
 4.4930	 4.7410
 4.4970	 4.6010
 4.5010	 4.5000
 4.5050	 4.5540
 4.5090	 4.5330
 4.5130	 4.4510
 4.5170	 4.4640
 4.5210	 4.5720
 4.5250	 4.5570
 4.5290	 4.5480
 4.5330	 4.5990
 4.5370	 4.6560
 4.5410	 4.6350
 4.5450	 4.4940
 4.5490	 4.5250
 4.5530	 4.6030
 4.5570	 4.5630
 4.5610	 4.4770
 4.5650	 4.4570
 4.5690	 4.4880
 4.5730	 4.5250
 4.5770	 4.6020
 4.5810	 4.6140
 4.5850	 4.4730
 4.5890	 4.4020
 4.5930	 4.4480
 4.5970	 4.5090
 4.6010	 4.5770
 4.6050	 4.6580
 4.6090	 4.9200
 4.6130	 5.0270
 4.6170	 4.6740
 4.6220	 4.3460
 4.6260	 4.3960
 4.6300	 4.7260
 4.6340	 4.7010
 4.6380	 4.5130
 4.6420	 4.4120
 4.6460	 4.4870
 4.6510	 4.6270
 4.6550	 4.5890
 4.6590	 4.5040
 4.6630	 4.4970
 4.6670	 4.5430
 4.6720	 4.6230
 4.6760	 4.5720
 4.6800	 4.4190
 4.6840	 4.4370
 4.6880	 4.6220
 4.6930	 4.7140
 4.6970	 4.5730
 4.7010	 4.4460
 4.7050	 4.5600
 4.7100	 4.6820
 4.7140	 4.6510
 4.7180	 4.5350
 4.7230	 4.4740
 4.7270	 4.5510
 4.7310	 4.4930
 4.7360	 4.4370
 4.7400	 4.4540
 4.7440	 4.4900
 4.7490	 4.5050
 4.7530	 4.4900
 4.7570	 4.5020
 4.7620	 4.4480
 4.7660	 4.3490
 4.7700	 4.4140
 4.7750	 4.6660
 4.7790	 4.8470
 4.7840	 4.8690
 4.7880	 4.8500
 4.7920	 4.7700
 4.7970	 4.8450
 4.8010	 4.7590
 4.8060	 4.6140
 4.8100	 4.5610
 4.8150	 4.5380
 4.8190	 4.5430
 4.8240	 4.5320
 4.8280	 4.5920
 4.8330	 4.6980
 4.8370	 4.6480
 4.8420	 4.5300
 4.8460	 4.5700
 4.8510	 4.6730
 4.8550	 4.6810
 4.8600	 4.5740
 4.8640	 4.5340
 4.8690	 4.5110
 4.8730	 4.5550
 4.8780	 4.5780
 4.8830	 4.4710
 4.8870	 4.4150
 4.8920	 4.4990
 4.8960	 4.6590
 4.9010	 4.8270
 4.9060	 4.8150
 4.9100	 4.6890
 4.9150	 4.6130
 4.9200	 4.6670
 4.9240	 4.7400
 4.9290	 4.7740
 4.9340	 4.8100
 4.9380	 4.8430
 4.9430	 4.8460
 4.9480	 4.8460
 4.9530	 4.7150
 4.9570	 4.6690
 4.9620	 4.7840
 4.9670	 4.8350
 4.9720	 4.8230
 4.9760	 4.7760
 4.9810	 4.7720
 4.9860	 4.8520
 4.9910	 4.9320
 4.9960	 4.8230
 5.0000	 4.7440
 5.0050	 4.7590
 5.0100	 4.7160
 5.0150	 4.8920
 5.0200	 5.0230
 5.0250	 4.9820
 5.0290	 4.9760
 5.0340	 4.9830
 5.0390	 4.9530
 5.0440	 4.9250
 5.0490	 4.8800
 5.0540	 4.9560
 5.0590	 5.0350
 5.0640	 5.1250
 5.0690	 5.1890
 5.0740	 5.1910
 5.0790	 5.0760
 5.0840	 5.0910
 5.0890	 5.0910
 5.0940	 5.0510
 5.0990	 5.0850
 5.1040	 5.1340
 5.1090	 5.1240
 5.1140	 5.2260
 5.1190	 5.2930
 5.1240	 5.2910
 5.1290	 5.3250
 5.1340	 5.3600
 5.1390	 5.2570
 5.1440	 5.1680
 5.1490	 5.2480
 5.1540	 5.3190
 5.1600	 5.2160
 5.1650	 5.1450
 5.1700	 5.2100
 5.1750	 5.2320
 5.1800	 5.2310
 5.1850	 5.2480
 5.1910	 5.2630
 5.1960	 5.3180
 5.2010	 5.3050
 5.2060	 5.3890
 5.2110	 5.3970
 5.2170	 5.3930
 5.2220	 5.3800
 5.2270	 5.4460
 5.2320	 5.4630
 5.2380	 5.4370
 5.2430	 5.4940
 5.2480	 5.4640
 5.2540	 5.4710
 5.2590	 5.5840
 5.2640	 5.4640
 5.2700	 5.3420
 5.2750	 5.2900
 5.2800	 5.3260
 5.2860	 5.3030
 5.2910	 5.3910
 5.2970	 5.4070
 5.3020	 5.3930
 5.3070	 5.4080
 5.3130	 5.5030
 5.3180	 5.5430
 5.3240	 5.5100
 5.3290	 5.4800
 5.3350	 5.4440
 5.3400	 5.3810
 5.3460	 5.4170
 5.3510	 5.4480
 5.3570	 5.5440
 5.3620	 5.5210
 5.3680	 5.5270
 5.3730	 5.4980
 5.3790	 5.5390
 5.3850	 5.5770
 5.3900	 5.5620
 5.3960	 5.5020
 5.4010	 5.4320
 5.4070	 5.4290
 5.4130	 5.4450
 5.4180	 5.4170
 5.4240	 5.4270
 5.4300	 5.3740
 5.4350	 5.4050
 5.4410	 5.3870
 5.4470	 5.4060
 5.4530	 5.3610
 5.4580	 5.3250
 5.4640	 5.3060
 5.4700	 5.3480
 5.4760	 5.3410
 5.4810	 5.3180
 5.4870	 5.2820
 5.4930	 5.2680
 5.4990	 5.2740
 5.5050	 5.2650
 5.5110	 5.2320
 5.5160	 5.3450
 5.5220	 5.3600
 5.5280	 5.2600
 5.5340	 5.1530
 5.5400	 5.1700
 5.5460	 5.2170
 5.5520	 5.2530
 5.5580	 5.1160
 5.5640	 5.0150
 5.5700	 5.0800
 5.5760	 5.0890
 5.5820	 5.0620
 5.5880	 5.1020
 5.5940	 5.0100
 5.6000	 5.0360
 5.6060	 5.0700
 5.6120	 5.0220
 5.6180	 5.0750
 5.6240	 5.0640
 5.6300	 4.9970
 5.6360	 5.0600
 5.6420	 5.0220
 5.6490	 4.9190
 5.6550	 4.8940
 5.6610	 4.9510
 5.6670	 4.8840
 5.6730	 4.8770
 5.6800	 4.7910
 5.6860	 4.7040
 5.6920	 4.5650
 5.6980	 4.5630
 5.7040	 4.5150
 5.7110	 4.5180
 5.7170	 4.4690
 5.7230	 4.2810
 5.7300	 4.1690
 5.7360	 3.9850
 5.7420	 3.7320
 5.7490	 3.8440
 5.7550	 4.1010
 5.7620	 4.2850
 5.7680	 4.5420
 5.7740	 4.8040
 5.7810	 4.9070
 5.7870	 5.1590
 5.7940	 5.4190
 5.8000	 5.5030
 5.8070	 5.5190
 5.8130	 5.4980
 5.8200	 5.4460
 5.8260	 5.4780
 5.8330	 5.5100
 5.8390	 5.5770
 5.8460	 5.6540
 5.8530	 5.8010
 5.8590	 5.7390
 5.8660	 5.7400
 5.8720	 5.7500
 5.8790	 5.8610
 5.8860	 5.9740
 5.8920	 6.0680
 5.8990	 5.9490
 5.9060	 5.8590
 5.9130	 5.9160
 5.9190	 6.0050
 5.9260	 5.9670
 5.9330	 6.1540
 5.9400	 6.1330
 5.9470	 5.9890
 5.9530	 6.0300
 5.9600	 6.1290
 5.9670	 6.0900
 5.9740	 6.0740
 5.9810	 5.9880
 5.9880	 6.0790
 5.9950	 6.1740
 6.0020	 6.1810
 6.0090	 6.0430
 6.0160	 6.0610
 6.0230	 6.0830
 6.0300	 6.0720
 6.0370	 5.9690
 6.0440	 5.9290
 6.0510	 5.7330
 6.0580	 5.7320
 6.0650	 5.7670
 6.0720	 5.7470
 6.0790	 5.6040
 6.0860	 5.4890
 6.0930	 5.4540
 6.1000	 5.4310
 6.1080	 5.2990
 6.1150	 5.2120
 6.1220	 5.1340
 6.1290	 5.2420
 6.1370	 5.1340
 6.1440	 4.9910
 6.1510	 4.9270
 6.1580	 4.9640
 6.1660	 4.9060
 6.1730	 4.8870
 6.1800	 4.8190
 6.1880	 4.7670
 6.1950	 4.8280
 6.2030	 4.9840
 6.2100	 4.9950
 6.2170	 5.0760
 6.2250	 4.9540
 6.2320	 4.9540
 6.2400	 4.9190
 6.2470	 4.8470
 6.2550	 4.7540
 6.2630	 4.8880
 6.2700	 4.8150
 6.2780	 4.8380
 6.2850	 4.9590
 6.2930	 5.1850
 6.3010	 5.1000
 6.3080	 4.9350
 6.3160	 4.8790
 6.3240	 4.9320
 6.3310	 4.8880
 6.3390	 4.9160
 6.3470	 4.9360
 6.3550	 5.0840
 6.3620	 5.0580
 6.3700	 5.0780
 6.3780	 5.0120
 6.3860	 4.9800
 6.3940	 4.9840
 6.4020	 5.0500
 6.4100	 4.9710
 6.4180	 4.9710
 6.4260	 4.9290
 6.4330	 4.9740
 6.4410	 4.9510
 6.4490	 5.0820
 6.4580	 5.0750
 6.4660	 5.0180
 6.4740	 4.9490
 6.4820	 4.9890
 6.4900	 4.9590
 6.4980	 5.0580
 6.5060	 5.0170
 6.5140	 4.9850
 6.5230	 4.9260
 6.5310	 4.9940
 6.5390	 4.9630
 6.5470	 4.9600
 6.5550	 4.9000
 6.5640	 4.9760
 6.5720	 5.0270
 6.5800	 4.9810
 6.5890	 4.9870
 6.5970	 5.0240
 6.6060	 4.9630
 6.6140	 5.1550
 6.6220	 5.1360
 6.6310	 5.0060
 6.6390	 4.8770
 6.6480	 4.9070
 6.6560	 4.9990
 6.6650	 5.0840
 6.6740	 4.9640
 6.6820	 4.9380
 6.6910	 4.7950
 6.6990	 4.7900
 6.7080	 4.7690
 6.7170	 4.8560
 6.7260	 4.8350
 6.7340	 4.7620
 6.7430	 4.6530
 6.7520	 4.6840
 6.7610	 4.5820
 6.7690	 4.4970
 6.7780	 4.4900
 6.7870	 4.9830
 6.7960	 5.2910
 6.8050	 5.0170
 6.8140	 4.7750
 6.8230	 5.1520
 6.8320	 5.7580
 6.8410	 6.2800
 6.8500	 6.1090
 6.8590	 5.8990
 6.8680	 5.7890
 6.8770	 5.8090
 6.8860	 5.7290
 6.8950	 5.7950
 6.9050	 5.8410
 6.9140	 5.8190
 6.9230	 5.4640
 6.9320	 5.4070
 6.9420	 5.5420
 6.9510	 5.6100
 6.9600	 5.5240
 6.9700	 5.5340
 6.9790	 5.5940
 6.9880	 5.6650
 6.9980	 5.5680
 7.0070	 5.6870
 7.0170	 5.5270
 7.0260	 5.4900
 7.0360	 5.4350
 7.0450	 5.5390
 7.0550	 5.4160
 7.0650	 5.4430
 7.0740	 5.4160
 7.0840	 5.3020
 7.0940	 5.2330
 7.1030	 5.3770
 7.1130	 5.3100
 7.1230	 5.3540
 7.1330	 5.3570
 7.1420	 5.3960
 7.1520	 5.2740
 7.1620	 5.3710
 7.1720	 5.2890
 7.1820	 5.2540
 7.1920	 5.2450
 7.2020	 5.4310
 7.2120	 5.3680
 7.2220	 5.4210
 7.2320	 5.3610
 7.2420	 5.1910
 7.2520	 5.0900
 7.2620	 5.1620
 7.2730	 5.2170
 7.2830	 5.4580
 7.2930	 5.4100
 7.3030	 5.3750
 7.3140	 5.2470
 7.3240	 5.3800
 7.3340	 5.3530
 7.3450	 5.2210
 7.3550	 5.1080
 7.3660	 5.3090
 7.3760	 5.3960
 7.3870	 5.3730
 7.3970	 5.1920
 7.4080	 5.2100
 7.4180	 5.1060
 7.4290	 5.2400
 7.4400	 5.1800
 7.4500	 5.1650
 7.4610	 5.0790
 7.4720	 5.2170
 7.4830	 5.2080
 7.4930	 5.3180
 7.5040	 5.2770
 7.5150	 5.2340
 7.5260	 5.1610
 7.5370	 5.1730
 7.5480	 5.0840
 7.5590	 5.2150
 7.5700	 5.2940
 7.5810	 5.2560
 7.5920	 5.1760
 7.6030	 5.1840
 7.6140	 5.0110
 7.6260	 5.0990
 7.6370	 5.0190
 7.6480	 5.0200
 7.6590	 5.0560
 7.6710	 5.1850
 7.6820	 5.2590
 7.6930	 5.4630
 7.7050	 5.3810
 7.7160	 5.3730
 7.7280	 5.1930
 7.7390	 5.2550
 7.7510	 5.3460
 7.7630	 5.3830
 7.7740	 5.2140
 7.7860	 5.2350
 7.7980	 5.2330
 7.8090	 5.2130
 7.8210	 5.1790
 7.8330	 5.3150
 7.8450	 5.1850
 7.8570	 5.1910
 7.8690	 5.1850
 7.8810	 5.1850
 7.8930	 5.1460
 7.9050	 5.3120
 7.9170	 5.3010
 7.9290	 5.2460
 7.9410	 5.1120
 7.9530	 5.2630
 7.9650	 5.0970
 7.9780	 5.0140
 7.9900	 5.1430
 8.0020	 5.3790
 8.0150	 5.4080
 8.0270	 5.3750
 8.0390	 5.1140
 8.0520	 5.1770
 8.0640	 5.1290
 8.0770	 5.1170
 8.0900	 5.0770
 8.1020	 5.2740
 8.1150	 5.1700
 8.1280	 5.2820
 8.1400	 5.4920
 8.1530	 5.5310
 8.1660	 5.0550
 8.1790	 5.0210
 8.1920	 5.1490
 8.2050	 5.5180
 8.2180	 5.6570
 8.2310	 5.7200
 8.2440	 5.6750
 8.2570	 5.7970
 8.2700	 5.5540
 8.2830	 5.5670
 8.2970	 5.3640
 8.3100	 5.5700
 8.3230	 5.6460
 8.3370	 5.5550
 8.3500	 5.3250
 8.3640	 5.4760
 8.3770	 5.5070
 8.3910	 5.6300
 8.4040	 5.5710
 8.4180	 5.7840
 8.4320	 5.7110
 8.4450	 5.7940
 8.4590	 5.8450
 8.4730	 5.9140
 8.4870	 5.7740
 8.5010	 6.1580
 8.5150	 6.2480
 8.5290	 6.2670
 8.5430	 6.0320
 8.5570	 6.1280
 8.5710	 6.0290
 8.5850	 5.8960
 8.5990	 5.7870
 8.6140	 5.9950
 8.6280	 5.8330
 8.6420	 5.7160
 8.6570	 5.5630
 8.6710	 5.5650
 8.6860	 5.5200
 8.7000	 5.8040
 8.7150	 5.8660
 8.7300	 6.0060
 8.7440	 5.9680
 8.7590	 6.2460
 8.7740	 6.1570
 8.7890	 6.2240
 8.8040	 6.0040
 8.8190	 6.0210
 8.8340	 5.8860
 8.8490	 6.1000
 8.8640	 5.9740
 8.8790	 6.1250
 8.8940	 5.9860
 8.9100	 5.8030
 8.9250	 5.6600
 8.9400	 5.7540
 8.9560	 5.4910
 8.9710	 5.3830
 8.9870	 5.1380
 9.0020	 5.3080
 9.0180	 5.3080
 9.0340	 5.3150
 9.0500	 5.1340
 9.0650	 5.2670
 9.0810	 5.1820
 9.0970	 5.1140
 9.1130	 5.1370
 9.1290	 5.4540
 9.1450	 5.2500
 9.1610	 5.4970
 9.1780	 5.4320
 9.1940	 5.4130
 9.2100	 5.2210
 9.2270	 5.2210
 9.2430	 5.1710
 9.2600	 5.2820
 9.2760	 4.8580
 9.2930	 4.8910
 9.3090	 4.8250
 9.3260	 4.6690
 9.3430	 4.5510
 9.3600	 4.8440
 9.3770	 4.5660
 9.3940	 4.4110
 9.4110	 4.1500
 9.4280	 4.3360
 9.4450	 4.2490
 9.4620	 4.2270
 9.4800	 3.9890
 9.4970	 3.9530
 9.5140	 4.0360
 9.5320	 4.5150
 9.5500	 4.4250
 9.5670	 4.5640
 9.5850	 4.3000
 9.6030	 4.4720
 9.6200	 4.3270
 9.6380	 4.3040
 9.6560	 3.9720
 9.6740	 4.1280
 9.6920	 4.0870
 9.7100	 4.2390
 9.7290	 4.0920
 9.7470	 4.3350
 9.7650	 4.3540
 9.7840	 4.4080
 9.8020	 4.4510
 9.8210	 4.8220
 9.8390	 4.7350
 9.8580	 4.7240
 9.8770	 4.5590
 9.8960	 4.5730
 9.9150	 4.3660
 9.9340	 4.7090
 9.9530	 4.8520
 9.9720	 4.9330
 9.9910	 4.7820
10.0100	 4.9060
10.0300	 5.1280
10.0490	 5.3370
10.0690	 5.0560
10.0880	 5.2100
10.1080	 5.0870
10.1280	 5.1640
10.1480	 5.2400
10.1670	 5.5200
10.1870	 5.4460
10.2070	 5.6440
10.2280	 5.6510
10.2480	 5.7910
10.2680	 5.6170
10.2890	 5.6880
10.3090	 5.5340
10.3300	 5.7320
10.3500	 5.6800
10.3710	 5.4990
10.3920	 5.2920
10.4120	 5.6330
10.4330	 5.5660
10.4540	 5.7270
10.4760	 5.7200
10.4970	 5.9180
10.5180	 5.7220
10.5390	 5.8140
10.5610	 5.6660
10.5820	 6.0000
10.6040	 6.1350
10.6260	 6.3380
10.6480	 6.0930
10.6700	 6.1300
10.6920	 5.9150
10.7140	 5.9100
10.7360	 5.7400
10.7580	 5.8260
10.7800	 5.7930
10.8030	 6.2480
10.8250	 6.2170
10.8480	 6.0130
10.8710	 5.5730
10.8940	 5.9040
10.9170	 5.8200
10.9400	 5.9200
10.9630	 5.6570
10.9860	 5.6110
11.0090	 5.6220
11.0330	 5.9020
11.0560	 5.8000
11.0800	 5.8490
11.1040	 5.6050
11.1270	 5.7100
11.1510	 5.5860
11.1750	 5.6780
11.2000	 5.4500
11.2240	 5.6550
11.2480	 5.6230
11.2730	 5.8260
11.2970	 5.4510
11.3220	 5.5690
11.3470	 5.5430
11.3720	 5.8410
11.3970	 5.6350
11.4220	 5.7300
11.4470	 5.5930
11.4720	 5.9320
11.4980	 5.6260
11.5230	 5.6380
11.5490	 5.2440
11.5750	 5.3900
11.6000	 5.4100
11.6260	 5.6060
11.6530	 5.3610
11.6790	 5.3800
11.7050	 5.0790
11.7320	 5.1510
11.7580	 5.2150
11.7850	 5.6980
11.8120	 5.5210
11.8390	 5.3960
11.8660	 4.8590
11.8930	 4.9900
11.9200	 5.0040
11.9480	 5.0130
11.9760	 4.4970
12.0030	 4.8540
12.0310	 4.9500
12.0590	 5.0560
12.0870	 4.7090
12.1150	 4.9720
12.1440	 4.8260
12.1720	 4.9530
12.2010	 4.8000
12.2300	 4.9010
12.2590	 4.4690
12.2880	 4.5480
12.3170	 4.3970
12.3460	 4.5120
12.3760	 4.1810
12.4050	 4.2160
12.4350	 4.0020
12.4650	 4.3580
12.4950	 4.2700
12.5250	 4.5660
12.5550	 4.2140
12.5860	 4.2820
12.6170	 3.7730
12.6470	 3.8520
12.6780	 3.4130
12.7090	 3.4260
12.7410	 3.3180
12.7720	 3.7660
12.8030	 3.4400
12.8350	 3.5180
12.8670	 3.2540
12.8990	 3.4190
12.9310	 3.0910
12.9640	 3.3070
12.9960	 2.9220
13.0290	 3.1540
13.0610	 3.0290
13.0940	 3.5260
13.1280	 3.3470
13.1610	 3.5870
13.1940	 2.8440
13.2280	 3.3170
13.2620	 3.0870
13.2960	 2.8060
13.3300	 2.4290
13.3640	 2.5570
13.3990	 2.0910
13.4340	 2.5470
13.4690	 2.5490
13.5040	 2.7550
13.5390	 2.3010
13.5740	 2.3560
13.6100	 2.1160
13.6460	 2.3300
13.6820	 1.8820
13.7180	 2.4380
13.7540	 2.5740
13.7910	 2.7310
13.8280	 2.1850
13.8650	 2.7280
13.9020	 2.8000
13.9390	 3.2060
13.9770	 2.7390
14.0150	 2.8760
14.0530	 2.6220
14.0910	 3.1110
14.1290	 2.5290
14.1680	 2.4610
14.2070	 2.1560
14.2460	 2.3500
14.2850	 1.5350
14.3240	 1.6910
14.3640	 1.6890
14.4040	 2.3950
14.4440	 2.1190
14.4840	 2.3220
14.5250	 1.7520
14.5660	 2.6380
14.6070	 2.0810
14.6480	 2.2280
14.6900	 2.0500
14.7310	 2.9560
14.7730	 2.1160
14.8150	 2.3470
14.8580	 1.6010
14.9010	 1.7000
14.9440	 1.0930
14.9870	 1.5020
15.0300	 1.0610
15.0740	 1.6750
15.1180	 1.2410
15.1620	 2.2680
15.2060	 1.7200
15.2510	 2.2220
15.2960	 1.3820
15.3410	 1.4490
15.3870	 0.4200
