Name: Pinus lambertiana 2
Type: vegetation
Class: Tree
Genus: Pinus
Species: lambertiana
Sample No.: VH161
Owner: UCSB
Wavelength Range: VSWIR
Origin: 37.0422; -119.3028; WGS84
Collection Date: 6/8/2013
Description: Samples were collected as part of the HyspIRI Airborne Campaign. 48 individual plants were sampled in three times in 2013 - spring  summer  and fall. The name of the sample includes a 1  2  or 3 which references a different individual of the species. Samples were taken to JPL and processed within 48 hours of collection. The same leaves were processed in the Nicolet and then measured using the ASD.
Measurement: Bidirectional reflectance
First Column: X
Second Column: Y
X Units: Wavelength (micrometers)
Y Units: Reflectance (percentage)
First X Value: 0.35
Last X Value: 2.5
Number of X Values: 2151
Additional Information: vegetation.tree.pinus.lambertiana.vswir.vh161.ucsb.asd.ancillary.txt

 0.3500	 5.1000
 0.3510	 5.1900
 0.3520	 5.1750
 0.3530	 5.1790
 0.3540	 5.2830
 0.3550	 5.1830
 0.3560	 5.1680
 0.3570	 5.1930
 0.3580	 5.0680
 0.3590	 5.0610
 0.3600	 5.0630
 0.3610	 5.0140
 0.3620	 4.9460
 0.3630	 4.9310
 0.3640	 4.9270
 0.3650	 4.8860
 0.3660	 4.9270
 0.3670	 4.9000
 0.3680	 4.8660
 0.3690	 4.9810
 0.3700	 4.9590
 0.3710	 4.8870
 0.3720	 4.8560
 0.3730	 4.8990
 0.3740	 4.9470
 0.3750	 4.9500
 0.3760	 4.8960
 0.3770	 4.8640
 0.3780	 4.9090
 0.3790	 4.9560
 0.3800	 4.8500
 0.3810	 4.8360
 0.3820	 4.8690
 0.3830	 4.8840
 0.3840	 4.9060
 0.3850	 4.8910
 0.3860	 4.8780
 0.3870	 4.9050
 0.3880	 4.8430
 0.3890	 4.8310
 0.3900	 4.8810
 0.3910	 4.8580
 0.3920	 4.8790
 0.3930	 4.8920
 0.3940	 4.8550
 0.3950	 4.8360
 0.3960	 4.8600
 0.3970	 4.9080
 0.3980	 4.9430
 0.3990	 4.9420
 0.4000	 4.9350
 0.4010	 4.9500
 0.4020	 4.9920
 0.4030	 5.0190
 0.4040	 5.0190
 0.4050	 5.0030
 0.4060	 5.0060
 0.4070	 5.0270
 0.4080	 5.0720
 0.4090	 5.1520
 0.4100	 5.1660
 0.4110	 5.1750
 0.4120	 5.2200
 0.4130	 5.2640
 0.4140	 5.3250
 0.4150	 5.3860
 0.4160	 5.4290
 0.4170	 5.4910
 0.4180	 5.5530
 0.4190	 5.6060
 0.4200	 5.6530
 0.4210	 5.7160
 0.4220	 5.7680
 0.4230	 5.8010
 0.4240	 5.8490
 0.4250	 5.9000
 0.4260	 5.9470
 0.4270	 5.9840
 0.4280	 6.0370
 0.4290	 6.0940
 0.4300	 6.1380
 0.4310	 6.1640
 0.4320	 6.1830
 0.4330	 6.2060
 0.4340	 6.2360
 0.4350	 6.2720
 0.4360	 6.2980
 0.4370	 6.3250
 0.4380	 6.3690
 0.4390	 6.3930
 0.4400	 6.4120
 0.4410	 6.4380
 0.4420	 6.4590
 0.4430	 6.4910
 0.4440	 6.5260
 0.4450	 6.5510
 0.4460	 6.5650
 0.4470	 6.5950
 0.4480	 6.6280
 0.4490	 6.6360
 0.4500	 6.6580
 0.4510	 6.6830
 0.4520	 6.7000
 0.4530	 6.7280
 0.4540	 6.7450
 0.4550	 6.7520
 0.4560	 6.7610
 0.4570	 6.7830
 0.4580	 6.7990
 0.4590	 6.8020
 0.4600	 6.8240
 0.4610	 6.8360
 0.4620	 6.8430
 0.4630	 6.8530
 0.4640	 6.8520
 0.4650	 6.8600
 0.4660	 6.8750
 0.4670	 6.8750
 0.4680	 6.8800
 0.4690	 6.8850
 0.4700	 6.8840
 0.4710	 6.8980
 0.4720	 6.9020
 0.4730	 6.8990
 0.4740	 6.9060
 0.4750	 6.9200
 0.4760	 6.9260
 0.4770	 6.9210
 0.4780	 6.9240
 0.4790	 6.9340
 0.4800	 6.9450
 0.4810	 6.9530
 0.4820	 6.9560
 0.4830	 6.9590
 0.4840	 6.9650
 0.4850	 6.9870
 0.4860	 7.0030
 0.4870	 7.0140
 0.4880	 7.0260
 0.4890	 7.0490
 0.4900	 7.0750
 0.4910	 7.1010
 0.4920	 7.1260
 0.4930	 7.1590
 0.4940	 7.1960
 0.4950	 7.2420
 0.4960	 7.2910
 0.4970	 7.3430
 0.4980	 7.4020
 0.4990	 7.4580
 0.5000	 7.5120
 0.5010	 7.5810
 0.5020	 7.6650
 0.5030	 7.7620
 0.5040	 7.8560
 0.5050	 7.9550
 0.5060	 8.0700
 0.5070	 8.2080
 0.5080	 8.3430
 0.5090	 8.4850
 0.5100	 8.6500
 0.5110	 8.8230
 0.5120	 9.0040
 0.5130	 9.1940
 0.5140	 9.4060
 0.5150	 9.6270
 0.5160	 9.8580
 0.5170	10.0980
 0.5180	10.3470
 0.5190	10.6000
 0.5200	10.8560
 0.5210	11.1130
 0.5220	11.3640
 0.5230	11.6090
 0.5240	11.8490
 0.5250	12.0850
 0.5260	12.3090
 0.5270	12.5170
 0.5280	12.7070
 0.5290	12.8890
 0.5300	13.0560
 0.5310	13.2090
 0.5320	13.3570
 0.5330	13.4850
 0.5340	13.5970
 0.5350	13.7020
 0.5360	13.7980
 0.5370	13.8840
 0.5380	13.9610
 0.5390	14.0350
 0.5400	14.0940
 0.5410	14.1460
 0.5420	14.1990
 0.5430	14.2450
 0.5440	14.3010
 0.5450	14.3630
 0.5460	14.4230
 0.5470	14.4980
 0.5480	14.5660
 0.5490	14.6170
 0.5500	14.6620
 0.5510	14.7010
 0.5520	14.7300
 0.5530	14.7440
 0.5540	14.7470
 0.5550	14.7310
 0.5560	14.6980
 0.5570	14.6560
 0.5580	14.5970
 0.5590	14.5260
 0.5600	14.4470
 0.5610	14.3620
 0.5620	14.2660
 0.5630	14.1610
 0.5640	14.0510
 0.5650	13.9370
 0.5660	13.8160
 0.5670	13.6880
 0.5680	13.5560
 0.5690	13.4140
 0.5700	13.2690
 0.5710	13.1280
 0.5720	12.9810
 0.5730	12.8410
 0.5740	12.7080
 0.5750	12.5810
 0.5760	12.4580
 0.5770	12.3440
 0.5780	12.2420
 0.5790	12.1480
 0.5800	12.0640
 0.5810	11.9830
 0.5820	11.8990
 0.5830	11.8190
 0.5840	11.7450
 0.5850	11.6790
 0.5860	11.6210
 0.5870	11.5650
 0.5880	11.5120
 0.5890	11.4650
 0.5900	11.4130
 0.5910	11.3640
 0.5920	11.3210
 0.5930	11.2840
 0.5940	11.2540
 0.5950	11.2300
 0.5960	11.2110
 0.5970	11.1950
 0.5980	11.1750
 0.5990	11.1540
 0.6000	11.1340
 0.6010	11.1050
 0.6020	11.0720
 0.6030	11.0360
 0.6040	10.9940
 0.6050	10.9440
 0.6060	10.8840
 0.6070	10.8160
 0.6080	10.7460
 0.6090	10.6660
 0.6100	10.5770
 0.6110	10.4850
 0.6120	10.4110
 0.6130	10.3440
 0.6140	10.2760
 0.6150	10.2040
 0.6160	10.1320
 0.6170	10.0650
 0.6180	10.0060
 0.6190	 9.9500
 0.6200	 9.8990
 0.6210	 9.8510
 0.6220	 9.8180
 0.6230	 9.7880
 0.6240	 9.7610
 0.6250	 9.7390
 0.6260	 9.7250
 0.6270	 9.7120
 0.6280	 9.7020
 0.6290	 9.6940
 0.6300	 9.6850
 0.6310	 9.6740
 0.6320	 9.6610
 0.6330	 9.6400
 0.6340	 9.6150
 0.6350	 9.5790
 0.6360	 9.5260
 0.6370	 9.4620
 0.6380	 9.3910
 0.6390	 9.3140
 0.6400	 9.2250
 0.6410	 9.1360
 0.6420	 9.0440
 0.6430	 8.9540
 0.6440	 8.8600
 0.6450	 8.7670
 0.6460	 8.6770
 0.6470	 8.5920
 0.6480	 8.5140
 0.6490	 8.4470
 0.6500	 8.3880
 0.6510	 8.3410
 0.6520	 8.3010
 0.6530	 8.2640
 0.6540	 8.2260
 0.6550	 8.1820
 0.6560	 8.1350
 0.6570	 8.0860
 0.6580	 8.0300
 0.6590	 7.9680
 0.6600	 7.9020
 0.6610	 7.8330
 0.6620	 7.7600
 0.6630	 7.6940
 0.6640	 7.6390
 0.6650	 7.5880
 0.6660	 7.5410
 0.6670	 7.4990
 0.6680	 7.4650
 0.6690	 7.4410
 0.6700	 7.4290
 0.6710	 7.4220
 0.6720	 7.4190
 0.6730	 7.4220
 0.6740	 7.4310
 0.6750	 7.4450
 0.6760	 7.4650
 0.6770	 7.4890
 0.6780	 7.5200
 0.6790	 7.5580
 0.6800	 7.6010
 0.6810	 7.6540
 0.6820	 7.7210
 0.6830	 7.7970
 0.6840	 7.8940
 0.6850	 8.0140
 0.6860	 8.1620
 0.6870	 8.3430
 0.6880	 8.5740
 0.6890	 8.8610
 0.6900	 9.2120
 0.6910	 9.6340
 0.6920	10.1250
 0.6930	10.6920
 0.6940	11.3340
 0.6950	12.0360
 0.6960	12.7980
 0.6970	13.6150
 0.6980	14.4760
 0.6990	15.3760
 0.7000	16.3050
 0.7010	17.2560
 0.7020	18.2240
 0.7030	19.1990
 0.7040	20.1780
 0.7050	21.1580
 0.7060	22.1320
 0.7070	23.1050
 0.7080	24.0770
 0.7090	25.0490
 0.7100	26.0190
 0.7110	26.9880
 0.7120	27.9560
 0.7130	28.9240
 0.7140	29.8930
 0.7150	30.8600
 0.7160	31.8230
 0.7170	32.7820
 0.7180	33.7370
 0.7190	34.6880
 0.7200	35.6290
 0.7210	36.5590
 0.7220	37.4780
 0.7230	38.3860
 0.7240	39.2740
 0.7250	40.1380
 0.7260	40.9820
 0.7270	41.8070
 0.7280	42.5990
 0.7290	43.3650
 0.7300	44.1030
 0.7310	44.8120
 0.7320	45.4940
 0.7330	46.1450
 0.7340	46.7650
 0.7350	47.3580
 0.7360	47.9190
 0.7370	48.4510
 0.7380	48.9570
 0.7390	49.4390
 0.7400	49.8880
 0.7410	50.3080
 0.7420	50.7100
 0.7430	51.0810
 0.7440	51.4260
 0.7450	51.7500
 0.7460	52.0550
 0.7470	52.3310
 0.7480	52.5890
 0.7490	52.8320
 0.7500	53.0480
 0.7510	53.2510
 0.7520	53.4410
 0.7530	53.6170
 0.7540	53.7810
 0.7550	53.9330
 0.7560	54.0720
 0.7570	54.2010
 0.7580	54.3170
 0.7590	54.4260
 0.7600	54.5290
 0.7610	54.6230
 0.7620	54.7120
 0.7630	54.7960
 0.7640	54.8730
 0.7650	54.9450
 0.7660	55.0130
 0.7670	55.0780
 0.7680	55.1390
 0.7690	55.1960
 0.7700	55.2520
 0.7710	55.3060
 0.7720	55.3520
 0.7730	55.4050
 0.7740	55.4560
 0.7750	55.4980
 0.7760	55.5450
 0.7770	55.5910
 0.7780	55.6360
 0.7790	55.6840
 0.7800	55.7270
 0.7810	55.7680
 0.7820	55.8100
 0.7830	55.8530
 0.7840	55.8950
 0.7850	55.9380
 0.7860	55.9780
 0.7870	56.0150
 0.7880	56.0540
 0.7890	56.0920
 0.7900	56.1290
 0.7910	56.1620
 0.7920	56.2000
 0.7930	56.2390
 0.7940	56.2700
 0.7950	56.3020
 0.7960	56.3340
 0.7970	56.3650
 0.7980	56.3910
 0.7990	56.4220
 0.8000	56.4550
 0.8010	56.4860
 0.8020	56.5090
 0.8030	56.5360
 0.8040	56.5630
 0.8050	56.5850
 0.8060	56.6080
 0.8070	56.6320
 0.8080	56.6550
 0.8090	56.6750
 0.8100	56.6990
 0.8110	56.7190
 0.8120	56.7340
 0.8130	56.7570
 0.8140	56.7790
 0.8150	56.7980
 0.8160	56.8130
 0.8170	56.8290
 0.8180	56.8500
 0.8190	56.8680
 0.8200	56.8770
 0.8210	56.8930
 0.8220	56.9110
 0.8230	56.9280
 0.8240	56.9400
 0.8250	56.9540
 0.8260	56.9660
 0.8270	56.9740
 0.8280	56.9780
 0.8290	56.9870
 0.8300	56.9990
 0.8310	57.0100
 0.8320	57.0140
 0.8330	57.0240
 0.8340	57.0360
 0.8350	57.0450
 0.8360	57.0630
 0.8370	57.0780
 0.8380	57.0920
 0.8390	57.1110
 0.8400	57.1270
 0.8410	57.1450
 0.8420	57.1660
 0.8430	57.1850
 0.8440	57.2020
 0.8450	57.2210
 0.8460	57.2420
 0.8470	57.2640
 0.8480	57.2760
 0.8490	57.2900
 0.8500	57.3180
 0.8510	57.3370
 0.8520	57.3540
 0.8530	57.3750
 0.8540	57.3990
 0.8550	57.4140
 0.8560	57.4310
 0.8570	57.4520
 0.8580	57.4660
 0.8590	57.4870
 0.8600	57.5060
 0.8610	57.5200
 0.8620	57.5410
 0.8630	57.5630
 0.8640	57.5780
 0.8650	57.5880
 0.8660	57.6030
 0.8670	57.6240
 0.8680	57.6440
 0.8690	57.6570
 0.8700	57.6770
 0.8710	57.6990
 0.8720	57.7170
 0.8730	57.7260
 0.8740	57.7410
 0.8750	57.7580
 0.8760	57.7750
 0.8770	57.7940
 0.8780	57.8110
 0.8790	57.8250
 0.8800	57.8400
 0.8810	57.8560
 0.8820	57.8730
 0.8830	57.8830
 0.8840	57.8870
 0.8850	57.9100
 0.8860	57.9240
 0.8870	57.9310
 0.8880	57.9360
 0.8890	57.9460
 0.8900	57.9540
 0.8910	57.9610
 0.8920	57.9720
 0.8930	57.9830
 0.8940	57.9890
 0.8950	57.9940
 0.8960	58.0070
 0.8970	58.0110
 0.8980	58.0240
 0.8990	58.0400
 0.9000	58.0370
 0.9010	58.0420
 0.9020	58.0490
 0.9030	58.0520
 0.9040	58.0570
 0.9050	58.0640
 0.9060	58.0720
 0.9070	58.0780
 0.9080	58.0800
 0.9090	58.0830
 0.9100	58.0870
 0.9110	58.0920
 0.9120	58.1040
 0.9130	58.1090
 0.9140	58.1110
 0.9150	58.1150
 0.9160	58.1160
 0.9170	58.1130
 0.9180	58.1140
 0.9190	58.1260
 0.9200	58.1110
 0.9210	58.0970
 0.9220	58.0960
 0.9230	58.1010
 0.9240	58.0900
 0.9250	58.0680
 0.9260	58.0460
 0.9270	58.0320
 0.9280	58.0140
 0.9290	57.9920
 0.9300	57.9650
 0.9310	57.9320
 0.9320	57.9010
 0.9330	57.8660
 0.9340	57.8250
 0.9350	57.7790
 0.9360	57.7410
 0.9370	57.7000
 0.9380	57.6500
 0.9390	57.5980
 0.9400	57.5500
 0.9410	57.4970
 0.9420	57.4350
 0.9430	57.3580
 0.9440	57.2880
 0.9450	57.2150
 0.9460	57.1300
 0.9470	57.0450
 0.9480	56.9360
 0.9490	56.8210
 0.9500	56.7130
 0.9510	56.5870
 0.9520	56.4620
 0.9530	56.3280
 0.9540	56.1800
 0.9550	56.0350
 0.9560	55.8990
 0.9570	55.7620
 0.9580	55.6210
 0.9590	55.5180
 0.9600	55.4080
 0.9610	55.3020
 0.9620	55.2210
 0.9630	55.1520
 0.9640	55.0780
 0.9650	55.0030
 0.9660	54.9370
 0.9670	54.8830
 0.9680	54.8390
 0.9690	54.8010
 0.9700	54.7620
 0.9710	54.7060
 0.9720	54.6810
 0.9730	54.6680
 0.9740	54.6340
 0.9750	54.6230
 0.9760	54.6080
 0.9770	54.5900
 0.9780	54.5860
 0.9790	54.5830
 0.9800	54.5810
 0.9810	54.5930
 0.9820	54.6260
 0.9830	54.6220
 0.9840	54.6180
 0.9850	54.6410
 0.9860	54.6980
 0.9870	54.7300
 0.9880	54.7560
 0.9890	54.7860
 0.9900	54.8250
 0.9910	54.8790
 0.9920	54.9180
 0.9930	54.9550
 0.9940	55.0150
 0.9950	55.0830
 0.9960	55.1270
 0.9970	55.1650
 0.9980	55.2230
 0.9990	55.2590
 1.0000	55.6010
 1.0010	56.1650
 1.0020	56.5090
 1.0030	56.5810
 1.0040	56.6490
 1.0050	56.7150
 1.0060	56.7870
 1.0070	56.8560
 1.0080	56.9240
 1.0090	56.9980
 1.0100	57.0670
 1.0110	57.1300
 1.0120	57.1970
 1.0130	57.2650
 1.0140	57.3350
 1.0150	57.4080
 1.0160	57.4800
 1.0170	57.5510
 1.0180	57.6230
 1.0190	57.6930
 1.0200	57.7650
 1.0210	57.8400
 1.0220	57.9150
 1.0230	57.9870
 1.0240	58.0590
 1.0250	58.1290
 1.0260	58.1930
 1.0270	58.2610
 1.0280	58.3290
 1.0290	58.3960
 1.0300	58.4660
 1.0310	58.5330
 1.0320	58.5990
 1.0330	58.6650
 1.0340	58.7270
 1.0350	58.7860
 1.0360	58.8430
 1.0370	58.8950
 1.0380	58.9520
 1.0390	59.0100
 1.0400	59.0660
 1.0410	59.1240
 1.0420	59.1810
 1.0430	59.2370
 1.0440	59.2910
 1.0450	59.3490
 1.0460	59.3990
 1.0470	59.4410
 1.0480	59.4860
 1.0490	59.5270
 1.0500	59.5680
 1.0510	59.6100
 1.0520	59.6510
 1.0530	59.6930
 1.0540	59.7350
 1.0550	59.7740
 1.0560	59.8160
 1.0570	59.8520
 1.0580	59.8830
 1.0590	59.9150
 1.0600	59.9450
 1.0610	59.9760
 1.0620	60.0070
 1.0630	60.0370
 1.0640	60.0710
 1.0650	60.0990
 1.0660	60.1270
 1.0670	60.1520
 1.0680	60.1730
 1.0690	60.1890
 1.0700	60.2070
 1.0710	60.2250
 1.0720	60.2420
 1.0730	60.2590
 1.0740	60.2750
 1.0750	60.2880
 1.0760	60.3020
 1.0770	60.3170
 1.0780	60.3270
 1.0790	60.3350
 1.0800	60.3410
 1.0810	60.3400
 1.0820	60.3420
 1.0830	60.3480
 1.0840	60.3500
 1.0850	60.3480
 1.0860	60.3480
 1.0870	60.3450
 1.0880	60.3410
 1.0890	60.3320
 1.0900	60.3210
 1.0910	60.3080
 1.0920	60.2880
 1.0930	60.2740
 1.0940	60.2640
 1.0950	60.2500
 1.0960	60.2380
 1.0970	60.2210
 1.0980	60.1980
 1.0990	60.1760
 1.1000	60.1500
 1.1010	60.1250
 1.1020	60.1020
 1.1030	60.0750
 1.1040	60.0480
 1.1050	60.0190
 1.1060	59.9910
 1.1070	59.9640
 1.1080	59.9320
 1.1090	59.9000
 1.1100	59.8640
 1.1110	59.8210
 1.1120	59.7800
 1.1130	59.7380
 1.1140	59.6920
 1.1150	59.6450
 1.1160	59.5920
 1.1170	59.5380
 1.1180	59.4740
 1.1190	59.4070
 1.1200	59.3300
 1.1210	59.2470
 1.1220	59.1540
 1.1230	59.0510
 1.1240	58.9440
 1.1250	58.8230
 1.1260	58.6940
 1.1270	58.5490
 1.1280	58.3930
 1.1290	58.2180
 1.1300	58.0280
 1.1310	57.8230
 1.1320	57.6010
 1.1330	57.3670
 1.1340	57.1200
 1.1350	56.8560
 1.1360	56.5750
 1.1370	56.2840
 1.1380	55.9800
 1.1390	55.6650
 1.1400	55.3440
 1.1410	55.0180
 1.1420	54.6870
 1.1430	54.3530
 1.1440	54.0220
 1.1450	53.6850
 1.1460	53.3640
 1.1470	53.0460
 1.1480	52.7410
 1.1490	52.4430
 1.1500	52.1630
 1.1510	51.8900
 1.1520	51.6380
 1.1530	51.4000
 1.1540	51.1810
 1.1550	50.9770
 1.1560	50.7900
 1.1570	50.6150
 1.1580	50.4580
 1.1590	50.3110
 1.1600	50.1770
 1.1610	50.0600
 1.1620	49.9540
 1.1630	49.8580
 1.1640	49.7710
 1.1650	49.6910
 1.1660	49.6190
 1.1670	49.5510
 1.1680	49.4910
 1.1690	49.4330
 1.1700	49.3790
 1.1710	49.3270
 1.1720	49.2810
 1.1730	49.2340
 1.1740	49.1890
 1.1750	49.1460
 1.1760	49.0990
 1.1770	49.0530
 1.1780	49.0020
 1.1790	48.9510
 1.1800	48.9020
 1.1810	48.8500
 1.1820	48.7990
 1.1830	48.7490
 1.1840	48.6980
 1.1850	48.6500
 1.1860	48.6010
 1.1870	48.5540
 1.1880	48.5110
 1.1890	48.4670
 1.1900	48.4280
 1.1910	48.3930
 1.1920	48.3630
 1.1930	48.3360
 1.1940	48.3140
 1.1950	48.2980
 1.1960	48.2860
 1.1970	48.2770
 1.1980	48.2710
 1.1990	48.2680
 1.2000	48.2680
 1.2010	48.2740
 1.2020	48.2850
 1.2030	48.3030
 1.2040	48.3260
 1.2050	48.3510
 1.2060	48.3810
 1.2070	48.4190
 1.2080	48.4580
 1.2090	48.5010
 1.2100	48.5480
 1.2110	48.5990
 1.2120	48.6510
 1.2130	48.7080
 1.2140	48.7710
 1.2150	48.8370
 1.2160	48.9060
 1.2170	48.9750
 1.2180	49.0480
 1.2190	49.1230
 1.2200	49.1990
 1.2210	49.2790
 1.2220	49.3600
 1.2230	49.4410
 1.2240	49.5200
 1.2250	49.5970
 1.2260	49.6740
 1.2270	49.7510
 1.2280	49.8290
 1.2290	49.9070
 1.2300	49.9810
 1.2310	50.0530
 1.2320	50.1220
 1.2330	50.1870
 1.2340	50.2520
 1.2350	50.3170
 1.2360	50.3800
 1.2370	50.4390
 1.2380	50.5010
 1.2390	50.5620
 1.2400	50.6220
 1.2410	50.6820
 1.2420	50.7380
 1.2430	50.7900
 1.2440	50.8420
 1.2450	50.8920
 1.2460	50.9430
 1.2470	50.9920
 1.2480	51.0360
 1.2490	51.0770
 1.2500	51.1190
 1.2510	51.1570
 1.2520	51.1990
 1.2530	51.2400
 1.2540	51.2750
 1.2550	51.3060
 1.2560	51.3360
 1.2570	51.3650
 1.2580	51.3930
 1.2590	51.4180
 1.2600	51.4410
 1.2610	51.4620
 1.2620	51.4790
 1.2630	51.4950
 1.2640	51.5140
 1.2650	51.5300
 1.2660	51.5460
 1.2670	51.5590
 1.2680	51.5690
 1.2690	51.5760
 1.2700	51.5780
 1.2710	51.5790
 1.2720	51.5770
 1.2730	51.5740
 1.2740	51.5700
 1.2750	51.5640
 1.2760	51.5560
 1.2770	51.5450
 1.2780	51.5320
 1.2790	51.5180
 1.2800	51.4980
 1.2810	51.4760
 1.2820	51.4510
 1.2830	51.4210
 1.2840	51.3880
 1.2850	51.3540
 1.2860	51.3150
 1.2870	51.2710
 1.2880	51.2240
 1.2890	51.1720
 1.2900	51.1130
 1.2910	51.0510
 1.2920	50.9870
 1.2930	50.9170
 1.2940	50.8410
 1.2950	50.7620
 1.2960	50.6760
 1.2970	50.5850
 1.2980	50.4920
 1.2990	50.3930
 1.3000	50.2890
 1.3010	50.1810
 1.3020	50.0660
 1.3030	49.9430
 1.3040	49.8150
 1.3050	49.6810
 1.3060	49.5410
 1.3070	49.3960
 1.3080	49.2470
 1.3090	49.0920
 1.3100	48.9320
 1.3110	48.7650
 1.3120	48.5910
 1.3130	48.4150
 1.3140	48.2330
 1.3150	48.0460
 1.3160	47.8520
 1.3170	47.6540
 1.3180	47.4480
 1.3190	47.2360
 1.3200	47.0210
 1.3210	46.7990
 1.3220	46.5710
 1.3230	46.3410
 1.3240	46.1030
 1.3250	45.8650
 1.3260	45.6250
 1.3270	45.3790
 1.3280	45.1330
 1.3290	44.8830
 1.3300	44.6310
 1.3310	44.3790
 1.3320	44.1230
 1.3330	43.8700
 1.3340	43.6150
 1.3350	43.3590
 1.3360	43.1040
 1.3370	42.8480
 1.3380	42.5970
 1.3390	42.3500
 1.3400	42.1050
 1.3410	41.8640
 1.3420	41.6230
 1.3430	41.3850
 1.3440	41.1510
 1.3450	40.9220
 1.3460	40.6970
 1.3470	40.4770
 1.3480	40.2600
 1.3490	40.0490
 1.3500	39.8430
 1.3510	39.6380
 1.3520	39.4350
 1.3530	39.2350
 1.3540	39.0350
 1.3550	38.8380
 1.3560	38.6420
 1.3570	38.4450
 1.3580	38.2490
 1.3590	38.0500
 1.3600	37.8490
 1.3610	37.6440
 1.3620	37.4320
 1.3630	37.2160
 1.3640	36.9940
 1.3650	36.7650
 1.3660	36.5300
 1.3670	36.2870
 1.3680	36.0300
 1.3690	35.7640
 1.3700	35.4800
 1.3710	35.1860
 1.3720	34.8780
 1.3730	34.5490
 1.3740	34.2080
 1.3750	33.8450
 1.3760	33.4580
 1.3770	33.0520
 1.3780	32.6190
 1.3790	32.1670
 1.3800	31.6940
 1.3810	31.1960
 1.3820	30.6850
 1.3830	30.1570
 1.3840	29.6140
 1.3850	29.0520
 1.3860	28.4850
 1.3870	27.9000
 1.3880	27.3190
 1.3890	26.7310
 1.3900	26.1410
 1.3910	25.5600
 1.3920	24.9790
 1.3930	24.4000
 1.3940	23.8330
 1.3950	23.2680
 1.3960	22.7170
 1.3970	22.1830
 1.3980	21.6630
 1.3990	21.1700
 1.4000	20.6940
 1.4010	20.2330
 1.4020	19.7950
 1.4030	19.3720
 1.4040	18.9700
 1.4050	18.5920
 1.4060	18.2330
 1.4070	17.8970
 1.4080	17.5800
 1.4090	17.2790
 1.4100	16.9990
 1.4110	16.7340
 1.4120	16.4860
 1.4130	16.2550
 1.4140	16.0390
 1.4150	15.8410
 1.4160	15.6560
 1.4170	15.4820
 1.4180	15.3230
 1.4190	15.1730
 1.4200	15.0330
 1.4210	14.9050
 1.4220	14.7840
 1.4230	14.6740
 1.4240	14.5730
 1.4250	14.4790
 1.4260	14.3930
 1.4270	14.3130
 1.4280	14.2400
 1.4290	14.1730
 1.4300	14.1120
 1.4310	14.0570
 1.4320	14.0070
 1.4330	13.9610
 1.4340	13.9210
 1.4350	13.8840
 1.4360	13.8530
 1.4370	13.8260
 1.4380	13.8020
 1.4390	13.7820
 1.4400	13.7650
 1.4410	13.7500
 1.4420	13.7380
 1.4430	13.7290
 1.4440	13.7220
 1.4450	13.7180
 1.4460	13.7160
 1.4470	13.7150
 1.4480	13.7160
 1.4490	13.7180
 1.4500	13.7210
 1.4510	13.7270
 1.4520	13.7340
 1.4530	13.7420
 1.4540	13.7520
 1.4550	13.7650
 1.4560	13.7780
 1.4570	13.7930
 1.4580	13.8110
 1.4590	13.8310
 1.4600	13.8540
 1.4610	13.8790
 1.4620	13.9070
 1.4630	13.9380
 1.4640	13.9730
 1.4650	14.0110
 1.4660	14.0520
 1.4670	14.0970
 1.4680	14.1440
 1.4690	14.1960
 1.4700	14.2510
 1.4710	14.3100
 1.4720	14.3700
 1.4730	14.4330
 1.4740	14.5000
 1.4750	14.5680
 1.4760	14.6420
 1.4770	14.7170
 1.4780	14.7930
 1.4790	14.8710
 1.4800	14.9500
 1.4810	15.0310
 1.4820	15.1140
 1.4830	15.1980
 1.4840	15.2840
 1.4850	15.3710
 1.4860	15.4610
 1.4870	15.5500
 1.4880	15.6390
 1.4890	15.7290
 1.4900	15.8210
 1.4910	15.9130
 1.4920	16.0060
 1.4930	16.1000
 1.4940	16.1940
 1.4950	16.2890
 1.4960	16.3850
 1.4970	16.4800
 1.4980	16.5770
 1.4990	16.6730
 1.5000	16.7700
 1.5010	16.8690
 1.5020	16.9670
 1.5030	17.0660
 1.5040	17.1640
 1.5050	17.2610
 1.5060	17.3580
 1.5070	17.4560
 1.5080	17.5530
 1.5090	17.6500
 1.5100	17.7480
 1.5110	17.8440
 1.5120	17.9410
 1.5130	18.0380
 1.5140	18.1340
 1.5150	18.2310
 1.5160	18.3260
 1.5170	18.4210
 1.5180	18.5160
 1.5190	18.6100
 1.5200	18.7040
 1.5210	18.7980
 1.5220	18.8900
 1.5230	18.9830
 1.5240	19.0750
 1.5250	19.1670
 1.5260	19.2570
 1.5270	19.3460
 1.5280	19.4350
 1.5290	19.5230
 1.5300	19.6120
 1.5310	19.7000
 1.5320	19.7860
 1.5330	19.8730
 1.5340	19.9590
 1.5350	20.0460
 1.5360	20.1330
 1.5370	20.2170
 1.5380	20.3010
 1.5390	20.3830
 1.5400	20.4650
 1.5410	20.5470
 1.5420	20.6300
 1.5430	20.7110
 1.5440	20.7930
 1.5450	20.8730
 1.5460	20.9510
 1.5470	21.0310
 1.5480	21.1080
 1.5490	21.1850
 1.5500	21.2620
 1.5510	21.3390
 1.5520	21.4160
 1.5530	21.4940
 1.5540	21.5700
 1.5550	21.6460
 1.5560	21.7200
 1.5570	21.7950
 1.5580	21.8690
 1.5590	21.9430
 1.5600	22.0160
 1.5610	22.0880
 1.5620	22.1590
 1.5630	22.2300
 1.5640	22.3010
 1.5650	22.3720
 1.5660	22.4420
 1.5670	22.5110
 1.5680	22.5800
 1.5690	22.6470
 1.5700	22.7150
 1.5710	22.7850
 1.5720	22.8520
 1.5730	22.9200
 1.5740	22.9890
 1.5750	23.0570
 1.5760	23.1250
 1.5770	23.1930
 1.5780	23.2610
 1.5790	23.3290
 1.5800	23.3960
 1.5810	23.4620
 1.5820	23.5280
 1.5830	23.5940
 1.5840	23.6610
 1.5850	23.7270
 1.5860	23.7930
 1.5870	23.8590
 1.5880	23.9260
 1.5890	23.9950
 1.5900	24.0640
 1.5910	24.1330
 1.5920	24.2030
 1.5930	24.2710
 1.5940	24.3400
 1.5950	24.4090
 1.5960	24.4750
 1.5970	24.5420
 1.5980	24.6080
 1.5990	24.6760
 1.6000	24.7450
 1.6010	24.8130
 1.6020	24.8810
 1.6030	24.9480
 1.6040	25.0130
 1.6050	25.0800
 1.6060	25.1450
 1.6070	25.2090
 1.6080	25.2740
 1.6090	25.3370
 1.6100	25.4010
 1.6110	25.4650
 1.6120	25.5270
 1.6130	25.5880
 1.6140	25.6480
 1.6150	25.7060
 1.6160	25.7650
 1.6170	25.8230
 1.6180	25.8800
 1.6190	25.9360
 1.6200	25.9900
 1.6210	26.0430
 1.6220	26.0950
 1.6230	26.1460
 1.6240	26.1980
 1.6250	26.2500
 1.6260	26.2990
 1.6270	26.3480
 1.6280	26.3940
 1.6290	26.4410
 1.6300	26.4870
 1.6310	26.5320
 1.6320	26.5750
 1.6330	26.6180
 1.6340	26.6620
 1.6350	26.7040
 1.6360	26.7470
 1.6370	26.7880
 1.6380	26.8280
 1.6390	26.8650
 1.6400	26.8990
 1.6410	26.9330
 1.6420	26.9640
 1.6430	26.9920
 1.6440	27.0170
 1.6450	27.0400
 1.6460	27.0600
 1.6470	27.0780
 1.6480	27.0940
 1.6490	27.1040
 1.6500	27.1130
 1.6510	27.1200
 1.6520	27.1230
 1.6530	27.1250
 1.6540	27.1240
 1.6550	27.1220
 1.6560	27.1200
 1.6570	27.1140
 1.6580	27.1080
 1.6590	27.1020
 1.6600	27.0950
 1.6610	27.0880
 1.6620	27.0810
 1.6630	27.0740
 1.6640	27.0660
 1.6650	27.0610
 1.6660	27.0570
 1.6670	27.0520
 1.6680	27.0470
 1.6690	27.0430
 1.6700	27.0370
 1.6710	27.0310
 1.6720	27.0250
 1.6730	27.0190
 1.6740	27.0130
 1.6750	27.0060
 1.6760	26.9970
 1.6770	26.9830
 1.6780	26.9700
 1.6790	26.9530
 1.6800	26.9340
 1.6810	26.9140
 1.6820	26.8910
 1.6830	26.8650
 1.6840	26.8350
 1.6850	26.8000
 1.6860	26.7610
 1.6870	26.7190
 1.6880	26.6760
 1.6890	26.6300
 1.6900	26.5830
 1.6910	26.5320
 1.6920	26.4820
 1.6930	26.4330
 1.6940	26.3820
 1.6950	26.3310
 1.6960	26.2800
 1.6970	26.2280
 1.6980	26.1770
 1.6990	26.1260
 1.7000	26.0760
 1.7010	26.0260
 1.7020	25.9750
 1.7030	25.9250
 1.7040	25.8740
 1.7050	25.8200
 1.7060	25.7690
 1.7070	25.7190
 1.7080	25.6680
 1.7090	25.6170
 1.7100	25.5660
 1.7110	25.5130
 1.7120	25.4640
 1.7130	25.4170
 1.7140	25.3700
 1.7150	25.3210
 1.7160	25.2700
 1.7170	25.2210
 1.7180	25.1730
 1.7190	25.1270
 1.7200	25.0810
 1.7210	25.0340
 1.7220	24.9870
 1.7230	24.9380
 1.7240	24.8880
 1.7250	24.8410
 1.7260	24.7970
 1.7270	24.7520
 1.7280	24.7090
 1.7290	24.6650
 1.7300	24.6190
 1.7310	24.5760
 1.7320	24.5360
 1.7330	24.4980
 1.7340	24.4620
 1.7350	24.4250
 1.7360	24.3890
 1.7370	24.3470
 1.7380	24.3010
 1.7390	24.2550
 1.7400	24.2050
 1.7410	24.1560
 1.7420	24.1060
 1.7430	24.0560
 1.7440	24.0060
 1.7450	23.9530
 1.7460	23.8990
 1.7470	23.8440
 1.7480	23.7850
 1.7490	23.7290
 1.7500	23.6740
 1.7510	23.6200
 1.7520	23.5670
 1.7530	23.5140
 1.7540	23.4600
 1.7550	23.4060
 1.7560	23.3520
 1.7570	23.2990
 1.7580	23.2470
 1.7590	23.1970
 1.7600	23.1490
 1.7610	23.1000
 1.7620	23.0540
 1.7630	23.0090
 1.7640	22.9670
 1.7650	22.9280
 1.7660	22.8890
 1.7670	22.8530
 1.7680	22.8160
 1.7690	22.7790
 1.7700	22.7440
 1.7710	22.7080
 1.7720	22.6760
 1.7730	22.6470
 1.7740	22.6180
 1.7750	22.5920
 1.7760	22.5660
 1.7770	22.5400
 1.7780	22.5160
 1.7790	22.4940
 1.7800	22.4770
 1.7810	22.4600
 1.7820	22.4490
 1.7830	22.4440
 1.7840	22.4360
 1.7850	22.4300
 1.7860	22.4260
 1.7870	22.4230
 1.7880	22.4250
 1.7890	22.4310
 1.7900	22.4370
 1.7910	22.4430
 1.7920	22.4480
 1.7930	22.4550
 1.7940	22.4620
 1.7950	22.4690
 1.7960	22.4760
 1.7970	22.4860
 1.7980	22.4970
 1.7990	22.5100
 1.8000	22.5260
 1.8010	22.5390
 1.8020	22.5480
 1.8030	22.5590
 1.8040	22.5710
 1.8050	22.5820
 1.8060	22.5940
 1.8070	22.6050
 1.8080	22.6130
 1.8090	22.6230
 1.8100	22.6360
 1.8110	22.6470
 1.8120	22.6590
 1.8130	22.6690
 1.8140	22.6750
 1.8150	22.6840
 1.8160	22.6910
 1.8170	22.7010
 1.8180	22.7100
 1.8190	22.7130
 1.8200	22.7170
 1.8210	22.7170
 1.8220	22.7190
 1.8230	22.7230
 1.8240	22.7250
 1.8250	22.7250
 1.8260	22.7250
 1.8270	22.7230
 1.8280	22.7210
 1.8290	22.7190
 1.8300	22.6300
 1.8310	22.4610
 1.8320	22.3650
 1.8330	22.3500
 1.8340	22.3330
 1.8350	22.3160
 1.8360	22.2910
 1.8370	22.2620
 1.8380	22.2320
 1.8390	22.1930
 1.8400	22.1460
 1.8410	22.0980
 1.8420	22.0460
 1.8430	21.9850
 1.8440	21.9230
 1.8450	21.8570
 1.8460	21.7800
 1.8470	21.6980
 1.8480	21.6070
 1.8490	21.5060
 1.8500	21.3970
 1.8510	21.2800
 1.8520	21.1550
 1.8530	21.0180
 1.8540	20.8700
 1.8550	20.7150
 1.8560	20.5480
 1.8570	20.3700
 1.8580	20.1790
 1.8590	19.9770
 1.8600	19.7620
 1.8610	19.5380
 1.8620	19.3010
 1.8630	19.0570
 1.8640	18.8040
 1.8650	18.5340
 1.8660	18.2510
 1.8670	17.9540
 1.8680	17.6420
 1.8690	17.3210
 1.8700	16.9850
 1.8710	16.6360
 1.8720	16.2780
 1.8730	15.9130
 1.8740	15.5400
 1.8750	15.1640
 1.8760	14.7830
 1.8770	14.4010
 1.8780	14.0190
 1.8790	13.6360
 1.8800	13.2590
 1.8810	12.8870
 1.8820	12.5160
 1.8830	12.1460
 1.8840	11.7860
 1.8850	11.4280
 1.8860	11.0780
 1.8870	10.7400
 1.8880	10.4090
 1.8890	10.0930
 1.8900	 9.7930
 1.8910	 9.5060
 1.8920	 9.2270
 1.8930	 8.9680
 1.8940	 8.7200
 1.8950	 8.4860
 1.8960	 8.2680
 1.8970	 8.0670
 1.8980	 7.8800
 1.8990	 7.7070
 1.9000	 7.5450
 1.9010	 7.3980
 1.9020	 7.2610
 1.9030	 7.1360
 1.9040	 7.0210
 1.9050	 6.9210
 1.9060	 6.8310
 1.9070	 6.7490
 1.9080	 6.6770
 1.9090	 6.6090
 1.9100	 6.5470
 1.9110	 6.4870
 1.9120	 6.4350
 1.9130	 6.3900
 1.9140	 6.3500
 1.9150	 6.3130
 1.9160	 6.2800
 1.9170	 6.2580
 1.9180	 6.2300
 1.9190	 6.2070
 1.9200	 6.1900
 1.9210	 6.1720
 1.9220	 6.1580
 1.9230	 6.1490
 1.9240	 6.1390
 1.9250	 6.1330
 1.9260	 6.1280
 1.9270	 6.1260
 1.9280	 6.1250
 1.9290	 6.1260
 1.9300	 6.1290
 1.9310	 6.1330
 1.9320	 6.1390
 1.9330	 6.1440
 1.9340	 6.1510
 1.9350	 6.1610
 1.9360	 6.1730
 1.9370	 6.1860
 1.9380	 6.1990
 1.9390	 6.2140
 1.9400	 6.2310
 1.9410	 6.2480
 1.9420	 6.2670
 1.9430	 6.2880
 1.9440	 6.3070
 1.9450	 6.3280
 1.9460	 6.3500
 1.9470	 6.3720
 1.9480	 6.3940
 1.9490	 6.4190
 1.9500	 6.4460
 1.9510	 6.4700
 1.9520	 6.4970
 1.9530	 6.5260
 1.9540	 6.5550
 1.9550	 6.5800
 1.9560	 6.6080
 1.9570	 6.6360
 1.9580	 6.6620
 1.9590	 6.6930
 1.9600	 6.7240
 1.9610	 6.7560
 1.9620	 6.7860
 1.9630	 6.8190
 1.9640	 6.8550
 1.9650	 6.8910
 1.9660	 6.9260
 1.9670	 6.9630
 1.9680	 6.9990
 1.9690	 7.0300
 1.9700	 7.0660
 1.9710	 7.1040
 1.9720	 7.1410
 1.9730	 7.1830
 1.9740	 7.2230
 1.9750	 7.2640
 1.9760	 7.3060
 1.9770	 7.3470
 1.9780	 7.3880
 1.9790	 7.4310
 1.9800	 7.4760
 1.9810	 7.5180
 1.9820	 7.5630
 1.9830	 7.6050
 1.9840	 7.6450
 1.9850	 7.6890
 1.9860	 7.7320
 1.9870	 7.7760
 1.9880	 7.8240
 1.9890	 7.8680
 1.9900	 7.9130
 1.9910	 7.9600
 1.9920	 8.0060
 1.9930	 8.0520
 1.9940	 8.0970
 1.9950	 8.1430
 1.9960	 8.1870
 1.9970	 8.2300
 1.9980	 8.2750
 1.9990	 8.3200
 2.0000	 8.3660
 2.0010	 8.4120
 2.0020	 8.4620
 2.0030	 8.5090
 2.0040	 8.5560
 2.0050	 8.6010
 2.0060	 8.6480
 2.0070	 8.6920
 2.0080	 8.7360
 2.0090	 8.7790
 2.0100	 8.8240
 2.0110	 8.8690
 2.0120	 8.9090
 2.0130	 8.9560
 2.0140	 9.0010
 2.0150	 9.0410
 2.0160	 9.0850
 2.0170	 9.1270
 2.0180	 9.1690
 2.0190	 9.2080
 2.0200	 9.2470
 2.0210	 9.2820
 2.0220	 9.3220
 2.0230	 9.3640
 2.0240	 9.4020
 2.0250	 9.4440
 2.0260	 9.4850
 2.0270	 9.5220
 2.0280	 9.5560
 2.0290	 9.5900
 2.0300	 9.6200
 2.0310	 9.6520
 2.0320	 9.6810
 2.0330	 9.7120
 2.0340	 9.7400
 2.0350	 9.7700
 2.0360	 9.8000
 2.0370	 9.8300
 2.0380	 9.8600
 2.0390	 9.8880
 2.0400	 9.9150
 2.0410	 9.9420
 2.0420	 9.9680
 2.0430	 9.9930
 2.0440	10.0160
 2.0450	10.0390
 2.0460	10.0630
 2.0470	10.0840
 2.0480	10.1060
 2.0490	10.1300
 2.0500	10.1510
 2.0510	10.1700
 2.0520	10.1910
 2.0530	10.2130
 2.0540	10.2340
 2.0550	10.2560
 2.0560	10.2750
 2.0570	10.2960
 2.0580	10.3150
 2.0590	10.3330
 2.0600	10.3520
 2.0610	10.3710
 2.0620	10.3880
 2.0630	10.4080
 2.0640	10.4300
 2.0650	10.4500
 2.0660	10.4730
 2.0670	10.4930
 2.0680	10.5130
 2.0690	10.5320
 2.0700	10.5470
 2.0710	10.5650
 2.0720	10.5860
 2.0730	10.6070
 2.0740	10.6270
 2.0750	10.6500
 2.0760	10.6700
 2.0770	10.6870
 2.0780	10.7070
 2.0790	10.7310
 2.0800	10.7510
 2.0810	10.7730
 2.0820	10.7910
 2.0830	10.8010
 2.0840	10.8180
 2.0850	10.8340
 2.0860	10.8540
 2.0870	10.8790
 2.0880	10.9030
 2.0890	10.9240
 2.0900	10.9440
 2.0910	10.9660
 2.0920	10.9870
 2.0930	11.0090
 2.0940	11.0340
 2.0950	11.0540
 2.0960	11.0720
 2.0970	11.0910
 2.0980	11.1080
 2.0990	11.1280
 2.1000	11.1510
 2.1010	11.1720
 2.1020	11.1970
 2.1030	11.2200
 2.1040	11.2410
 2.1050	11.2610
 2.1060	11.2820
 2.1070	11.3010
 2.1080	11.3240
 2.1090	11.3490
 2.1100	11.3730
 2.1110	11.3990
 2.1120	11.4230
 2.1130	11.4490
 2.1140	11.4720
 2.1150	11.4950
 2.1160	11.5180
 2.1170	11.5390
 2.1180	11.5620
 2.1190	11.5870
 2.1200	11.6100
 2.1210	11.6340
 2.1220	11.6580
 2.1230	11.6800
 2.1240	11.7020
 2.1250	11.7250
 2.1260	11.7500
 2.1270	11.7730
 2.1280	11.7970
 2.1290	11.8180
 2.1300	11.8350
 2.1310	11.8560
 2.1320	11.8750
 2.1330	11.8960
 2.1340	11.9220
 2.1350	11.9440
 2.1360	11.9690
 2.1370	11.9910
 2.1380	12.0090
 2.1390	12.0300
 2.1400	12.0530
 2.1410	12.0770
 2.1420	12.1010
 2.1430	12.1270
 2.1440	12.1520
 2.1450	12.1790
 2.1460	12.2040
 2.1470	12.2290
 2.1480	12.2550
 2.1490	12.2800
 2.1500	12.3060
 2.1510	12.3330
 2.1520	12.3580
 2.1530	12.3790
 2.1540	12.4030
 2.1550	12.4290
 2.1560	12.4530
 2.1570	12.4780
 2.1580	12.5020
 2.1590	12.5270
 2.1600	12.5470
 2.1610	12.5690
 2.1620	12.5960
 2.1630	12.6200
 2.1640	12.6430
 2.1650	12.6680
 2.1660	12.6930
 2.1670	12.7170
 2.1680	12.7410
 2.1690	12.7660
 2.1700	12.7930
 2.1710	12.8170
 2.1720	12.8410
 2.1730	12.8660
 2.1740	12.8880
 2.1750	12.9100
 2.1760	12.9350
 2.1770	12.9570
 2.1780	12.9760
 2.1790	12.9970
 2.1800	13.0170
 2.1810	13.0370
 2.1820	13.0590
 2.1830	13.0790
 2.1840	13.0990
 2.1850	13.1180
 2.1860	13.1390
 2.1870	13.1610
 2.1880	13.1820
 2.1890	13.2020
 2.1900	13.2260
 2.1910	13.2520
 2.1920	13.2750
 2.1930	13.3020
 2.1940	13.3240
 2.1950	13.3420
 2.1960	13.3610
 2.1970	13.3800
 2.1980	13.3980
 2.1990	13.4150
 2.2000	13.4310
 2.2010	13.4450
 2.2020	13.4610
 2.2030	13.4810
 2.2040	13.4980
 2.2050	13.5130
 2.2060	13.5310
 2.2070	13.5480
 2.2080	13.5630
 2.2090	13.5790
 2.2100	13.6010
 2.2110	13.6150
 2.2120	13.6260
 2.2130	13.6370
 2.2140	13.6460
 2.2150	13.6520
 2.2160	13.6560
 2.2170	13.6590
 2.2180	13.6580
 2.2190	13.6600
 2.2200	13.6650
 2.2210	13.6640
 2.2220	13.6610
 2.2230	13.6560
 2.2240	13.6450
 2.2250	13.6360
 2.2260	13.6320
 2.2270	13.6220
 2.2280	13.6110
 2.2290	13.5980
 2.2300	13.5800
 2.2310	13.5600
 2.2320	13.5390
 2.2330	13.5150
 2.2340	13.4880
 2.2350	13.4580
 2.2360	13.4280
 2.2370	13.3970
 2.2380	13.3620
 2.2390	13.3240
 2.2400	13.2830
 2.2410	13.2370
 2.2420	13.1900
 2.2430	13.1400
 2.2440	13.0930
 2.2450	13.0470
 2.2460	12.9990
 2.2470	12.9510
 2.2480	12.9010
 2.2490	12.8480
 2.2500	12.7910
 2.2510	12.7310
 2.2520	12.6710
 2.2530	12.6040
 2.2540	12.5420
 2.2550	12.4850
 2.2560	12.4250
 2.2570	12.3670
 2.2580	12.3080
 2.2590	12.2470
 2.2600	12.1860
 2.2610	12.1250
 2.2620	12.0640
 2.2630	12.0090
 2.2640	11.9530
 2.2650	11.8990
 2.2660	11.8460
 2.2670	11.7930
 2.2680	11.7380
 2.2690	11.6880
 2.2700	11.6410
 2.2710	11.5960
 2.2720	11.5550
 2.2730	11.5150
 2.2740	11.4810
 2.2750	11.4450
 2.2760	11.4100
 2.2770	11.3780
 2.2780	11.3470
 2.2790	11.3160
 2.2800	11.2870
 2.2810	11.2610
 2.2820	11.2340
 2.2830	11.2110
 2.2840	11.1950
 2.2850	11.1740
 2.2860	11.1500
 2.2870	11.1290
 2.2880	11.1080
 2.2890	11.0850
 2.2900	11.0670
 2.2910	11.0430
 2.2920	11.0150
 2.2930	10.9860
 2.2940	10.9530
 2.2950	10.9210
 2.2960	10.8900
 2.2970	10.8560
 2.2980	10.8180
 2.2990	10.7840
 2.3000	10.7500
 2.3010	10.7120
 2.3020	10.6760
 2.3030	10.6410
 2.3040	10.5960
 2.3050	10.5590
 2.3060	10.5290
 2.3070	10.5010
 2.3080	10.4770
 2.3090	10.4530
 2.3100	10.4270
 2.3110	10.4050
 2.3120	10.3840
 2.3130	10.3670
 2.3140	10.3510
 2.3150	10.3380
 2.3160	10.3270
 2.3170	10.3210
 2.3180	10.3120
 2.3190	10.3060
 2.3200	10.2970
 2.3210	10.2840
 2.3220	10.2730
 2.3230	10.2620
 2.3240	10.2480
 2.3250	10.2340
 2.3260	10.2150
 2.3270	10.1880
 2.3280	10.1670
 2.3290	10.1400
 2.3300	10.1190
 2.3310	10.1070
 2.3320	10.0870
 2.3330	10.0680
 2.3340	10.0480
 2.3350	10.0250
 2.3360	10.0010
 2.3370	 9.9820
 2.3380	 9.9560
 2.3390	 9.9180
 2.3400	 9.8900
 2.3410	 9.8540
 2.3420	 9.8310
 2.3430	 9.8170
 2.3440	 9.7980
 2.3450	 9.7810
 2.3460	 9.7600
 2.3470	 9.7360
 2.3480	 9.7130
 2.3490	 9.6890
 2.3500	 9.6680
 2.3510	 9.6530
 2.3520	 9.6350
 2.3530	 9.6170
 2.3540	 9.6010
 2.3550	 9.5900
 2.3560	 9.5740
 2.3570	 9.5560
 2.3580	 9.5370
 2.3590	 9.5130
 2.3600	 9.4920
 2.3610	 9.4750
 2.3620	 9.4630
 2.3630	 9.4500
 2.3640	 9.4250
 2.3650	 9.4020
 2.3660	 9.3800
 2.3670	 9.3620
 2.3680	 9.3470
 2.3690	 9.3260
 2.3700	 9.3070
 2.3710	 9.2810
 2.3720	 9.2570
 2.3730	 9.2310
 2.3740	 9.1940
 2.3750	 9.1660
 2.3760	 9.1440
 2.3770	 9.1310
 2.3780	 9.1210
 2.3790	 9.0960
 2.3800	 9.0670
 2.3810	 9.0450
 2.3820	 9.0190
 2.3830	 8.9990
 2.3840	 8.9840
 2.3850	 8.9540
 2.3860	 8.9260
 2.3870	 8.8970
 2.3880	 8.8700
 2.3890	 8.8450
 2.3900	 8.8150
 2.3910	 8.8000
 2.3920	 8.7730
 2.3930	 8.7540
 2.3940	 8.7340
 2.3950	 8.6980
 2.3960	 8.6790
 2.3970	 8.6580
 2.3980	 8.6370
 2.3990	 8.6320
 2.4000	 8.6160
 2.4010	 8.5830
 2.4020	 8.5450
 2.4030	 8.5030
 2.4040	 8.4650
 2.4050	 8.4360
 2.4060	 8.4150
 2.4070	 8.3980
 2.4080	 8.3610
 2.4090	 8.3350
 2.4100	 8.3060
 2.4110	 8.2740
 2.4120	 8.2660
 2.4130	 8.2440
 2.4140	 8.2170
 2.4150	 8.1970
 2.4160	 8.1620
 2.4170	 8.1240
 2.4180	 8.0890
 2.4190	 8.0440
 2.4200	 7.9950
 2.4210	 7.9580
 2.4220	 7.9320
 2.4230	 7.9100
 2.4240	 7.8760
 2.4250	 7.8470
 2.4260	 7.8110
 2.4270	 7.7760
 2.4280	 7.7570
 2.4290	 7.7250
 2.4300	 7.6940
 2.4310	 7.6730
 2.4320	 7.6530
 2.4330	 7.6300
 2.4340	 7.6170
 2.4350	 7.5900
 2.4360	 7.5540
 2.4370	 7.5300
 2.4380	 7.5000
 2.4390	 7.4710
 2.4400	 7.4410
 2.4410	 7.4030
 2.4420	 7.3700
 2.4430	 7.3450
 2.4440	 7.3200
 2.4450	 7.2790
 2.4460	 7.2510
 2.4470	 7.2240
 2.4480	 7.1770
 2.4490	 7.1480
 2.4500	 7.1240
 2.4510	 7.0950
 2.4520	 7.0760
 2.4530	 7.0580
 2.4540	 7.0240
 2.4550	 7.0110
 2.4560	 7.0120
 2.4570	 6.9950
 2.4580	 6.9780
 2.4590	 6.9540
 2.4600	 6.8950
 2.4610	 6.8680
 2.4620	 6.8730
 2.4630	 6.8630
 2.4640	 6.8510
 2.4650	 6.8340
 2.4660	 6.8050
 2.4670	 6.7710
 2.4680	 6.7450
 2.4690	 6.7220
 2.4700	 6.6950
 2.4710	 6.6580
 2.4720	 6.6360
 2.4730	 6.6260
 2.4740	 6.6110
 2.4750	 6.6120
 2.4760	 6.6040
 2.4770	 6.5950
 2.4780	 6.5840
 2.4790	 6.5640
 2.4800	 6.5460
 2.4810	 6.5170
 2.4820	 6.4860
 2.4830	 6.4860
 2.4840	 6.4910
 2.4850	 6.5040
 2.4860	 6.5030
 2.4870	 6.4710
 2.4880	 6.4570
 2.4890	 6.4190
 2.4900	 6.3940
 2.4910	 6.3900
 2.4920	 6.3520
 2.4930	 6.3580
 2.4940	 6.3460
 2.4950	 6.3540
 2.4960	 6.3920
 2.4970	 6.3590
 2.4980	 6.3720
 2.4990	 6.3860
 2.5000	 6.3850
