Name: Magnolia grandiflora
Type: vegetation
Class: Tree
Genus: Magnolia
Species: grandiflora
Sample No.: JPL116
Owner: JPL
Wavelength Range: VSWIR
Origin: 34.12659; -118.11347;; WGS84
Collection Date: 9/7/2016
Description: Samples were collected at the Huntington Garden in San Marino California as part of a JPL Subcontract studying HyTES imagery. Samples were taken to JPL and processed within 48 hours of collection. The same leaves were processed in the Nicolet and then measured using the ASD.
Measurement: Bidirectional reflectance
First Column: X
Second Column: Y
X Units: Wavelength (micrometer)
Y Units: Reflectance (percentage)
First X Value: 0.35
Last X Value: 2.5
Number of X Values: 2151
Additional Information: vegetation.tree.magnolia.grandiflora.vswir.jpl116.jpl.asd.ancillary.txt

 0.3500	11.4570
 0.3510	11.3440
 0.3520	11.3200
 0.3530	11.3320
 0.3540	11.3190
 0.3550	11.2590
 0.3560	11.2330
 0.3570	11.2100
 0.3580	11.1220
 0.3590	11.1230
 0.3600	11.1690
 0.3610	11.1940
 0.3620	11.1320
 0.3630	11.0560
 0.3640	11.0310
 0.3650	11.0750
 0.3660	11.0670
 0.3670	11.0310
 0.3680	10.9870
 0.3690	10.9590
 0.3700	10.9940
 0.3710	11.0020
 0.3720	10.9510
 0.3730	10.9420
 0.3740	10.9230
 0.3750	10.9050
 0.3760	10.9090
 0.3770	10.8980
 0.3780	10.8830
 0.3790	10.8880
 0.3800	10.9390
 0.3810	10.9280
 0.3820	10.8770
 0.3830	10.8370
 0.3840	10.8720
 0.3850	10.8630
 0.3860	10.8260
 0.3870	10.8190
 0.3880	10.8060
 0.3890	10.7990
 0.3900	10.7990
 0.3910	10.7950
 0.3920	10.7960
 0.3930	10.7860
 0.3940	10.7580
 0.3950	10.7620
 0.3960	10.7390
 0.3970	10.7100
 0.3980	10.7210
 0.3990	10.7290
 0.4000	10.7310
 0.4010	10.7240
 0.4020	10.7010
 0.4030	10.6870
 0.4040	10.6760
 0.4050	10.6630
 0.4060	10.6950
 0.4070	10.7180
 0.4080	10.7260
 0.4090	10.7420
 0.4100	10.7730
 0.4110	10.7960
 0.4120	10.8020
 0.4130	10.8160
 0.4140	10.8270
 0.4150	10.8410
 0.4160	10.8680
 0.4170	10.9030
 0.4180	10.9260
 0.4190	10.9380
 0.4200	10.9520
 0.4210	10.9840
 0.4220	11.0190
 0.4230	11.0450
 0.4240	11.0640
 0.4250	11.0940
 0.4260	11.1270
 0.4270	11.1500
 0.4280	11.1760
 0.4290	11.1970
 0.4300	11.2080
 0.4310	11.2060
 0.4320	11.2010
 0.4330	11.2010
 0.4340	11.2100
 0.4350	11.2170
 0.4360	11.2260
 0.4370	11.2480
 0.4380	11.2980
 0.4390	11.3480
 0.4400	11.3980
 0.4410	11.4490
 0.4420	11.4960
 0.4430	11.5270
 0.4440	11.5430
 0.4450	11.5550
 0.4460	11.5770
 0.4470	11.6030
 0.4480	11.6280
 0.4490	11.6450
 0.4500	11.6590
 0.4510	11.6720
 0.4520	11.6880
 0.4530	11.7110
 0.4540	11.7270
 0.4550	11.7400
 0.4560	11.7620
 0.4570	11.7780
 0.4580	11.7890
 0.4590	11.7980
 0.4600	11.8090
 0.4610	11.8190
 0.4620	11.8270
 0.4630	11.8340
 0.4640	11.8490
 0.4650	11.8600
 0.4660	11.8640
 0.4670	11.8750
 0.4680	11.8820
 0.4690	11.8890
 0.4700	11.8980
 0.4710	11.9040
 0.4720	11.9080
 0.4730	11.9110
 0.4740	11.9130
 0.4750	11.9250
 0.4760	11.9350
 0.4770	11.9370
 0.4780	11.9410
 0.4790	11.9440
 0.4800	11.9460
 0.4810	11.9500
 0.4820	11.9480
 0.4830	11.9410
 0.4840	11.9320
 0.4850	11.9270
 0.4860	11.9310
 0.4870	11.9370
 0.4880	11.9430
 0.4890	11.9620
 0.4900	11.9910
 0.4910	12.0220
 0.4920	12.0490
 0.4930	12.0820
 0.4940	12.1210
 0.4950	12.1650
 0.4960	12.2080
 0.4970	12.2530
 0.4980	12.3040
 0.4990	12.3630
 0.5000	12.4220
 0.5010	12.4850
 0.5020	12.5520
 0.5030	12.6240
 0.5040	12.7040
 0.5050	12.7910
 0.5060	12.8840
 0.5070	12.9840
 0.5080	13.0930
 0.5090	13.2120
 0.5100	13.3430
 0.5110	13.4830
 0.5120	13.6320
 0.5130	13.7930
 0.5140	13.9710
 0.5150	14.1590
 0.5160	14.3610
 0.5170	14.5790
 0.5180	14.7960
 0.5190	15.0270
 0.5200	15.2700
 0.5210	15.5080
 0.5220	15.7560
 0.5230	16.0070
 0.5240	16.2530
 0.5250	16.4920
 0.5260	16.7220
 0.5270	16.9440
 0.5280	17.1590
 0.5290	17.3570
 0.5300	17.5390
 0.5310	17.7080
 0.5320	17.8700
 0.5330	18.0120
 0.5340	18.1400
 0.5350	18.2570
 0.5360	18.3600
 0.5370	18.4460
 0.5380	18.5130
 0.5390	18.5630
 0.5400	18.5830
 0.5410	18.5750
 0.5420	18.5560
 0.5430	18.5610
 0.5440	18.5980
 0.5450	18.6710
 0.5460	18.7730
 0.5470	18.8840
 0.5480	18.9840
 0.5490	19.0610
 0.5500	19.1170
 0.5510	19.1540
 0.5520	19.1790
 0.5530	19.1960
 0.5540	19.2000
 0.5550	19.1840
 0.5560	19.1470
 0.5570	19.0970
 0.5580	19.0310
 0.5590	18.9470
 0.5600	18.8450
 0.5610	18.7330
 0.5620	18.6080
 0.5630	18.4750
 0.5640	18.3380
 0.5650	18.1960
 0.5660	18.0490
 0.5670	17.8960
 0.5680	17.7360
 0.5690	17.5820
 0.5700	17.4310
 0.5710	17.2810
 0.5720	17.1390
 0.5730	17.0020
 0.5740	16.8750
 0.5750	16.7640
 0.5760	16.6680
 0.5770	16.5850
 0.5780	16.5080
 0.5790	16.4250
 0.5800	16.3460
 0.5810	16.2700
 0.5820	16.1900
 0.5830	16.1100
 0.5840	16.0420
 0.5850	15.9850
 0.5860	15.9260
 0.5870	15.8540
 0.5880	15.7750
 0.5890	15.6980
 0.5900	15.6330
 0.5910	15.5780
 0.5920	15.5330
 0.5930	15.4990
 0.5940	15.4750
 0.5950	15.4600
 0.5960	15.4510
 0.5970	15.4360
 0.5980	15.4200
 0.5990	15.4030
 0.6000	15.3850
 0.6010	15.3710
 0.6020	15.3500
 0.6030	15.3200
 0.6040	15.2800
 0.6050	15.2320
 0.6060	15.1740
 0.6070	15.1070
 0.6080	15.0380
 0.6090	14.9360
 0.6100	14.7920
 0.6110	14.6250
 0.6120	14.5620
 0.6130	14.5590
 0.6140	14.5630
 0.6150	14.5260
 0.6160	14.4890
 0.6170	14.4510
 0.6180	14.4050
 0.6190	14.3580
 0.6200	14.3140
 0.6210	14.2790
 0.6220	14.2540
 0.6230	14.2360
 0.6240	14.2210
 0.6250	14.2090
 0.6260	14.2040
 0.6270	14.1990
 0.6280	14.1930
 0.6290	14.1840
 0.6300	14.1670
 0.6310	14.1560
 0.6320	14.1530
 0.6330	14.1500
 0.6340	14.1340
 0.6350	14.1060
 0.6360	14.0680
 0.6370	14.0250
 0.6380	13.9740
 0.6390	13.9150
 0.6400	13.8510
 0.6410	13.7870
 0.6420	13.7220
 0.6430	13.6550
 0.6440	13.5890
 0.6450	13.5210
 0.6460	13.4570
 0.6470	13.4000
 0.6480	13.3500
 0.6490	13.3030
 0.6500	13.2620
 0.6510	13.2290
 0.6520	13.2050
 0.6530	13.1850
 0.6540	13.1630
 0.6550	13.1360
 0.6560	13.1040
 0.6570	13.0690
 0.6580	13.0320
 0.6590	12.9930
 0.6600	12.9490
 0.6610	12.9020
 0.6620	12.8570
 0.6630	12.8130
 0.6640	12.7740
 0.6650	12.7400
 0.6660	12.7070
 0.6670	12.6800
 0.6680	12.6600
 0.6690	12.6490
 0.6700	12.6410
 0.6710	12.6380
 0.6720	12.6400
 0.6730	12.6470
 0.6740	12.6580
 0.6750	12.6750
 0.6760	12.7000
 0.6770	12.7270
 0.6780	12.7570
 0.6790	12.7930
 0.6800	12.8360
 0.6810	12.8890
 0.6820	12.9530
 0.6830	13.0290
 0.6840	13.1210
 0.6850	13.2270
 0.6860	13.3530
 0.6870	13.5040
 0.6880	13.6800
 0.6890	13.8920
 0.6900	14.1480
 0.6910	14.4550
 0.6920	14.8220
 0.6930	15.2500
 0.6940	15.7480
 0.6950	16.3260
 0.6960	16.9750
 0.6970	17.6940
 0.6980	18.4850
 0.6990	19.3390
 0.7000	20.2510
 0.7010	21.2120
 0.7020	22.2070
 0.7030	23.2360
 0.7040	24.2840
 0.7050	25.3410
 0.7060	26.4030
 0.7070	27.4700
 0.7080	28.5440
 0.7090	29.6260
 0.7100	30.7150
 0.7110	31.8070
 0.7120	32.8990
 0.7130	33.9940
 0.7140	35.0900
 0.7150	36.1860
 0.7160	37.2810
 0.7170	38.3760
 0.7180	39.4600
 0.7190	40.5360
 0.7200	41.6100
 0.7210	42.6670
 0.7220	43.7070
 0.7230	44.7270
 0.7240	45.7270
 0.7250	46.7070
 0.7260	47.6590
 0.7270	48.5790
 0.7280	49.4630
 0.7290	50.3180
 0.7300	51.1420
 0.7310	51.9270
 0.7320	52.6760
 0.7330	53.3900
 0.7340	54.0690
 0.7350	54.7120
 0.7360	55.3230
 0.7370	55.9020
 0.7380	56.4450
 0.7390	56.9490
 0.7400	57.4270
 0.7410	57.8770
 0.7420	58.2920
 0.7430	58.6800
 0.7440	59.0360
 0.7450	59.3620
 0.7460	59.6650
 0.7470	59.9380
 0.7480	60.1900
 0.7490	60.4270
 0.7500	60.6340
 0.7510	60.8260
 0.7520	61.0010
 0.7530	61.1550
 0.7540	61.3000
 0.7550	61.4310
 0.7560	61.5470
 0.7570	61.6500
 0.7580	61.7440
 0.7590	61.8310
 0.7600	61.9090
 0.7610	61.9780
 0.7620	62.0350
 0.7630	62.0860
 0.7640	62.1370
 0.7650	62.1810
 0.7660	62.2200
 0.7670	62.2550
 0.7680	62.2820
 0.7690	62.3090
 0.7700	62.3320
 0.7710	62.3530
 0.7720	62.3740
 0.7730	62.3920
 0.7740	62.4100
 0.7750	62.4300
 0.7760	62.4430
 0.7770	62.4560
 0.7780	62.4720
 0.7790	62.4880
 0.7800	62.5000
 0.7810	62.5100
 0.7820	62.5200
 0.7830	62.5280
 0.7840	62.5360
 0.7850	62.5460
 0.7860	62.5610
 0.7870	62.5740
 0.7880	62.5860
 0.7890	62.5980
 0.7900	62.6100
 0.7910	62.6150
 0.7920	62.6200
 0.7930	62.6300
 0.7940	62.6380
 0.7950	62.6480
 0.7960	62.6550
 0.7970	62.6600
 0.7980	62.6720
 0.7990	62.6790
 0.8000	62.6840
 0.8010	62.6900
 0.8020	62.7030
 0.8030	62.7080
 0.8040	62.7090
 0.8050	62.7160
 0.8060	62.7210
 0.8070	62.7230
 0.8080	62.7250
 0.8090	62.7280
 0.8100	62.7340
 0.8110	62.7400
 0.8120	62.7450
 0.8130	62.7520
 0.8140	62.7530
 0.8150	62.7550
 0.8160	62.7620
 0.8170	62.7690
 0.8180	62.7740
 0.8190	62.7770
 0.8200	62.7780
 0.8210	62.7830
 0.8220	62.7860
 0.8230	62.7880
 0.8240	62.7920
 0.8250	62.7950
 0.8260	62.7970
 0.8270	62.7990
 0.8280	62.7990
 0.8290	62.8000
 0.8300	62.8030
 0.8310	62.8040
 0.8320	62.8010
 0.8330	62.8030
 0.8340	62.8080
 0.8350	62.8060
 0.8360	62.8100
 0.8370	62.8180
 0.8380	62.8250
 0.8390	62.8300
 0.8400	62.8380
 0.8410	62.8450
 0.8420	62.8510
 0.8430	62.8640
 0.8440	62.8730
 0.8450	62.8820
 0.8460	62.8910
 0.8470	62.8930
 0.8480	62.9040
 0.8490	62.9170
 0.8500	62.9220
 0.8510	62.9270
 0.8520	62.9330
 0.8530	62.9380
 0.8540	62.9420
 0.8550	62.9540
 0.8560	62.9640
 0.8570	62.9710
 0.8580	62.9780
 0.8590	62.9810
 0.8600	62.9890
 0.8610	63.0040
 0.8620	63.0140
 0.8630	63.0220
 0.8640	63.0290
 0.8650	63.0330
 0.8660	63.0330
 0.8670	63.0330
 0.8680	63.0380
 0.8690	63.0480
 0.8700	63.0520
 0.8710	63.0550
 0.8720	63.0590
 0.8730	63.0640
 0.8740	63.0730
 0.8750	63.0800
 0.8760	63.0830
 0.8770	63.0910
 0.8780	63.0940
 0.8790	63.0950
 0.8800	63.0980
 0.8810	63.0970
 0.8820	63.1010
 0.8830	63.1080
 0.8840	63.1100
 0.8850	63.1080
 0.8860	63.1110
 0.8870	63.1120
 0.8880	63.1060
 0.8890	63.1100
 0.8900	63.1140
 0.8910	63.1150
 0.8920	63.1180
 0.8930	63.1160
 0.8940	63.1160
 0.8950	63.1180
 0.8960	63.1160
 0.8970	63.1160
 0.8980	63.1160
 0.8990	63.1140
 0.9000	63.1120
 0.9010	63.1130
 0.9020	63.1150
 0.9030	63.1170
 0.9040	63.1160
 0.9050	63.1170
 0.9060	63.1140
 0.9070	63.1050
 0.9080	63.1070
 0.9090	63.0980
 0.9100	63.0930
 0.9110	63.0980
 0.9120	63.0890
 0.9130	63.0830
 0.9140	63.0790
 0.9150	63.0730
 0.9160	63.0630
 0.9170	63.0570
 0.9180	63.0570
 0.9190	63.0590
 0.9200	63.0490
 0.9210	63.0340
 0.9220	63.0200
 0.9230	63.0050
 0.9240	62.9860
 0.9250	62.9690
 0.9260	62.9510
 0.9270	62.9240
 0.9280	62.8980
 0.9290	62.8750
 0.9300	62.8510
 0.9310	62.8190
 0.9320	62.7860
 0.9330	62.7510
 0.9340	62.7150
 0.9350	62.6760
 0.9360	62.6400
 0.9370	62.6060
 0.9380	62.5690
 0.9390	62.5150
 0.9400	62.4650
 0.9410	62.4220
 0.9420	62.3800
 0.9430	62.3220
 0.9440	62.2610
 0.9450	62.2020
 0.9460	62.1400
 0.9470	62.0710
 0.9480	61.9930
 0.9490	61.9100
 0.9500	61.8240
 0.9510	61.7240
 0.9520	61.6260
 0.9530	61.5280
 0.9540	61.4250
 0.9550	61.3240
 0.9560	61.2310
 0.9570	61.1460
 0.9580	61.0650
 0.9590	60.9810
 0.9600	60.9060
 0.9610	60.8330
 0.9620	60.7620
 0.9630	60.7240
 0.9640	60.6830
 0.9650	60.6420
 0.9660	60.6140
 0.9670	60.5870
 0.9680	60.5650
 0.9690	60.5470
 0.9700	60.5330
 0.9710	60.5160
 0.9720	60.5040
 0.9730	60.4960
 0.9740	60.4870
 0.9750	60.4720
 0.9760	60.4750
 0.9770	60.4870
 0.9780	60.4850
 0.9790	60.4860
 0.9800	60.5010
 0.9810	60.5210
 0.9820	60.5260
 0.9830	60.5280
 0.9840	60.5350
 0.9850	60.5500
 0.9860	60.5710
 0.9870	60.5860
 0.9880	60.6060
 0.9890	60.6300
 0.9900	60.6550
 0.9910	60.7030
 0.9920	60.7440
 0.9930	60.7720
 0.9940	60.7990
 0.9950	60.8410
 0.9960	60.8710
 0.9970	60.9020
 0.9980	60.9530
 0.9990	60.9890
 1.0000	61.0120
 1.0010	62.4570
 1.0020	62.4990
 1.0030	62.5420
 1.0040	62.5920
 1.0050	62.6410
 1.0060	62.6840
 1.0070	62.7260
 1.0080	62.7670
 1.0090	62.8030
 1.0100	62.8430
 1.0110	62.8820
 1.0120	62.9250
 1.0130	62.9750
 1.0140	63.0180
 1.0150	63.0590
 1.0160	63.1040
 1.0170	63.1470
 1.0180	63.1880
 1.0190	63.2350
 1.0200	63.2810
 1.0210	63.3190
 1.0220	63.3620
 1.0230	63.4020
 1.0240	63.4400
 1.0250	63.4800
 1.0260	63.5230
 1.0270	63.5610
 1.0280	63.5960
 1.0290	63.6330
 1.0300	63.6680
 1.0310	63.7050
 1.0320	63.7460
 1.0330	63.7860
 1.0340	63.8170
 1.0350	63.8470
 1.0360	63.8820
 1.0370	63.9120
 1.0380	63.9440
 1.0390	63.9800
 1.0400	64.0140
 1.0410	64.0450
 1.0420	64.0740
 1.0430	64.1030
 1.0440	64.1310
 1.0450	64.1570
 1.0460	64.1790
 1.0470	64.2000
 1.0480	64.2210
 1.0490	64.2370
 1.0500	64.2550
 1.0510	64.2730
 1.0520	64.2950
 1.0530	64.3140
 1.0540	64.3330
 1.0550	64.3490
 1.0560	64.3630
 1.0570	64.3740
 1.0580	64.3790
 1.0590	64.3870
 1.0600	64.3930
 1.0610	64.4020
 1.0620	64.4190
 1.0630	64.4280
 1.0640	64.4380
 1.0650	64.4450
 1.0660	64.4450
 1.0670	64.4450
 1.0680	64.4440
 1.0690	64.4420
 1.0700	64.4410
 1.0710	64.4410
 1.0720	64.4370
 1.0730	64.4330
 1.0740	64.4290
 1.0750	64.4230
 1.0760	64.4160
 1.0770	64.4110
 1.0780	64.4050
 1.0790	64.3970
 1.0800	64.3890
 1.0810	64.3830
 1.0820	64.3750
 1.0830	64.3690
 1.0840	64.3590
 1.0850	64.3460
 1.0860	64.3360
 1.0870	64.3230
 1.0880	64.3080
 1.0890	64.2930
 1.0900	64.2770
 1.0910	64.2620
 1.0920	64.2460
 1.0930	64.2300
 1.0940	64.2130
 1.0950	64.1970
 1.0960	64.1790
 1.0970	64.1620
 1.0980	64.1460
 1.0990	64.1290
 1.1000	64.1110
 1.1010	64.0940
 1.1020	64.0760
 1.1030	64.0590
 1.1040	64.0400
 1.1050	64.0210
 1.1060	64.0000
 1.1070	63.9760
 1.1080	63.9560
 1.1090	63.9380
 1.1100	63.9160
 1.1110	63.8950
 1.1120	63.8710
 1.1130	63.8420
 1.1140	63.8160
 1.1150	63.7950
 1.1160	63.7680
 1.1170	63.7410
 1.1180	63.7070
 1.1190	63.6680
 1.1200	63.6260
 1.1210	63.5820
 1.1220	63.5320
 1.1230	63.4790
 1.1240	63.4190
 1.1250	63.3480
 1.1260	63.2700
 1.1270	63.1810
 1.1280	63.0840
 1.1290	62.9740
 1.1300	62.8560
 1.1310	62.7230
 1.1320	62.5760
 1.1330	62.4210
 1.1340	62.2550
 1.1350	62.0760
 1.1360	61.8870
 1.1370	61.6870
 1.1380	61.4760
 1.1390	61.2540
 1.1400	61.0250
 1.1410	60.7960
 1.1420	60.5620
 1.1430	60.3270
 1.1440	60.0960
 1.1450	59.8650
 1.1460	59.6390
 1.1470	59.4120
 1.1480	59.1980
 1.1490	58.9850
 1.1500	58.7910
 1.1510	58.6080
 1.1520	58.4370
 1.1530	58.2810
 1.1540	58.1350
 1.1550	57.9980
 1.1560	57.8760
 1.1570	57.7650
 1.1580	57.6640
 1.1590	57.5760
 1.1600	57.4940
 1.1610	57.4190
 1.1620	57.3530
 1.1630	57.2940
 1.1640	57.2410
 1.1650	57.1930
 1.1660	57.1520
 1.1670	57.1130
 1.1680	57.0760
 1.1690	57.0440
 1.1700	57.0170
 1.1710	56.9890
 1.1720	56.9620
 1.1730	56.9360
 1.1740	56.9100
 1.1750	56.8840
 1.1760	56.8570
 1.1770	56.8310
 1.1780	56.8020
 1.1790	56.7730
 1.1800	56.7460
 1.1810	56.7180
 1.1820	56.6900
 1.1830	56.6600
 1.1840	56.6290
 1.1850	56.6010
 1.1860	56.5710
 1.1870	56.5430
 1.1880	56.5190
 1.1890	56.4980
 1.1900	56.4790
 1.1910	56.4640
 1.1920	56.4500
 1.1930	56.4350
 1.1940	56.4250
 1.1950	56.4170
 1.1960	56.4120
 1.1970	56.4130
 1.1980	56.4180
 1.1990	56.4240
 1.2000	56.4340
 1.2010	56.4460
 1.2020	56.4620
 1.2030	56.4820
 1.2040	56.5040
 1.2050	56.5280
 1.2060	56.5540
 1.2070	56.5810
 1.2080	56.6120
 1.2090	56.6450
 1.2100	56.6780
 1.2110	56.7140
 1.2120	56.7500
 1.2130	56.7890
 1.2140	56.8310
 1.2150	56.8740
 1.2160	56.9190
 1.2170	56.9640
 1.2180	57.0110
 1.2190	57.0570
 1.2200	57.1020
 1.2210	57.1510
 1.2220	57.2010
 1.2230	57.2480
 1.2240	57.2980
 1.2250	57.3470
 1.2260	57.3950
 1.2270	57.4440
 1.2280	57.4910
 1.2290	57.5370
 1.2300	57.5810
 1.2310	57.6220
 1.2320	57.6650
 1.2330	57.7060
 1.2340	57.7460
 1.2350	57.7840
 1.2360	57.8230
 1.2370	57.8620
 1.2380	57.8980
 1.2390	57.9360
 1.2400	57.9730
 1.2410	58.0060
 1.2420	58.0390
 1.2430	58.0700
 1.2440	58.1010
 1.2450	58.1310
 1.2460	58.1630
 1.2470	58.1940
 1.2480	58.2230
 1.2490	58.2520
 1.2500	58.2790
 1.2510	58.3030
 1.2520	58.3260
 1.2530	58.3480
 1.2540	58.3680
 1.2550	58.3870
 1.2560	58.4050
 1.2570	58.4220
 1.2580	58.4370
 1.2590	58.4520
 1.2600	58.4670
 1.2610	58.4780
 1.2620	58.4870
 1.2630	58.4960
 1.2640	58.5030
 1.2650	58.5080
 1.2660	58.5150
 1.2670	58.5210
 1.2680	58.5230
 1.2690	58.5200
 1.2700	58.5160
 1.2710	58.5090
 1.2720	58.5040
 1.2730	58.5000
 1.2740	58.4920
 1.2750	58.4820
 1.2760	58.4670
 1.2770	58.4500
 1.2780	58.4290
 1.2790	58.4040
 1.2800	58.3790
 1.2810	58.3540
 1.2820	58.3260
 1.2830	58.2960
 1.2840	58.2630
 1.2850	58.2260
 1.2860	58.1870
 1.2870	58.1430
 1.2880	58.0950
 1.2890	58.0430
 1.2900	57.9870
 1.2910	57.9260
 1.2920	57.8610
 1.2930	57.7940
 1.2940	57.7210
 1.2950	57.6430
 1.2960	57.5620
 1.2970	57.4780
 1.2980	57.3900
 1.2990	57.2970
 1.3000	57.2000
 1.3010	57.1000
 1.3020	56.9960
 1.3030	56.8890
 1.3040	56.7780
 1.3050	56.6650
 1.3060	56.5470
 1.3070	56.4250
 1.3080	56.2980
 1.3090	56.1680
 1.3100	56.0320
 1.3110	55.8940
 1.3120	55.7530
 1.3130	55.6070
 1.3140	55.4570
 1.3150	55.3040
 1.3160	55.1450
 1.3170	54.9830
 1.3180	54.8170
 1.3190	54.6470
 1.3200	54.4740
 1.3210	54.2960
 1.3220	54.1140
 1.3230	53.9280
 1.3240	53.7380
 1.3250	53.5480
 1.3260	53.3560
 1.3270	53.1590
 1.3280	52.9620
 1.3290	52.7580
 1.3300	52.5520
 1.3310	52.3460
 1.3320	52.1360
 1.3330	51.9280
 1.3340	51.7190
 1.3350	51.5080
 1.3360	51.3000
 1.3370	51.0910
 1.3380	50.8830
 1.3390	50.6780
 1.3400	50.4700
 1.3410	50.2660
 1.3420	50.0650
 1.3430	49.8660
 1.3440	49.6730
 1.3450	49.4810
 1.3460	49.2900
 1.3470	49.1020
 1.3480	48.9130
 1.3490	48.7310
 1.3500	48.5530
 1.3510	48.3770
 1.3520	48.2020
 1.3530	48.0300
 1.3540	47.8570
 1.3550	47.6820
 1.3560	47.5090
 1.3570	47.3320
 1.3580	47.1540
 1.3590	46.9720
 1.3600	46.7840
 1.3610	46.5920
 1.3620	46.3910
 1.3630	46.1820
 1.3640	45.9660
 1.3650	45.7380
 1.3660	45.5020
 1.3670	45.2540
 1.3680	44.9900
 1.3690	44.7090
 1.3700	44.4090
 1.3710	44.0910
 1.3720	43.7550
 1.3730	43.3960
 1.3740	43.0190
 1.3750	42.6170
 1.3760	42.1850
 1.3770	41.7270
 1.3780	41.2340
 1.3790	40.7120
 1.3800	40.1640
 1.3810	39.5840
 1.3820	38.9830
 1.3830	38.3570
 1.3840	37.7110
 1.3850	37.0390
 1.3860	36.3600
 1.3870	35.6570
 1.3880	34.9590
 1.3890	34.2520
 1.3900	33.5410
 1.3910	32.8390
 1.3920	32.1390
 1.3930	31.4440
 1.3940	30.7650
 1.3950	30.0920
 1.3960	29.4400
 1.3970	28.8120
 1.3980	28.2040
 1.3990	27.6290
 1.4000	27.0790
 1.4010	26.5510
 1.4020	26.0560
 1.4030	25.5840
 1.4040	25.1400
 1.4050	24.7270
 1.4060	24.3380
 1.4070	23.9800
 1.4080	23.6470
 1.4090	23.3350
 1.4100	23.0470
 1.4110	22.7800
 1.4120	22.5320
 1.4130	22.3050
 1.4140	22.0940
 1.4150	21.9010
 1.4160	21.7230
 1.4170	21.5590
 1.4180	21.4100
 1.4190	21.2700
 1.4200	21.1420
 1.4210	21.0240
 1.4220	20.9150
 1.4230	20.8160
 1.4240	20.7250
 1.4250	20.6410
 1.4260	20.5660
 1.4270	20.4950
 1.4280	20.4320
 1.4290	20.3740
 1.4300	20.3220
 1.4310	20.2740
 1.4320	20.2330
 1.4330	20.1940
 1.4340	20.1600
 1.4350	20.1300
 1.4360	20.1040
 1.4370	20.0800
 1.4380	20.0610
 1.4390	20.0470
 1.4400	20.0340
 1.4410	20.0240
 1.4420	20.0160
 1.4430	20.0100
 1.4440	20.0070
 1.4450	20.0060
 1.4460	20.0080
 1.4470	20.0100
 1.4480	20.0130
 1.4490	20.0180
 1.4500	20.0250
 1.4510	20.0330
 1.4520	20.0430
 1.4530	20.0560
 1.4540	20.0690
 1.4550	20.0860
 1.4560	20.1040
 1.4570	20.1230
 1.4580	20.1460
 1.4590	20.1710
 1.4600	20.1990
 1.4610	20.2300
 1.4620	20.2660
 1.4630	20.3050
 1.4640	20.3490
 1.4650	20.3960
 1.4660	20.4480
 1.4670	20.5030
 1.4680	20.5620
 1.4690	20.6240
 1.4700	20.6900
 1.4710	20.7620
 1.4720	20.8360
 1.4730	20.9120
 1.4740	20.9930
 1.4750	21.0740
 1.4760	21.1600
 1.4770	21.2490
 1.4780	21.3400
 1.4790	21.4330
 1.4800	21.5290
 1.4810	21.6260
 1.4820	21.7260
 1.4830	21.8290
 1.4840	21.9320
 1.4850	22.0380
 1.4860	22.1440
 1.4870	22.2540
 1.4880	22.3650
 1.4890	22.4770
 1.4900	22.5910
 1.4910	22.7060
 1.4920	22.8240
 1.4930	22.9430
 1.4940	23.0630
 1.4950	23.1840
 1.4960	23.3060
 1.4970	23.4270
 1.4980	23.5520
 1.4990	23.6780
 1.5000	23.8040
 1.5010	23.9320
 1.5020	24.0600
 1.5030	24.1890
 1.5040	24.3190
 1.5050	24.4500
 1.5060	24.5810
 1.5070	24.7140
 1.5080	24.8470
 1.5090	24.9810
 1.5100	25.1150
 1.5110	25.2490
 1.5120	25.3850
 1.5130	25.5190
 1.5140	25.6540
 1.5150	25.7910
 1.5160	25.9260
 1.5170	26.0620
 1.5180	26.1990
 1.5190	26.3350
 1.5200	26.4710
 1.5210	26.6050
 1.5220	26.7400
 1.5230	26.8740
 1.5240	27.0080
 1.5250	27.1420
 1.5260	27.2750
 1.5270	27.4070
 1.5280	27.5390
 1.5290	27.6700
 1.5300	27.8020
 1.5310	27.9350
 1.5320	28.0670
 1.5330	28.1990
 1.5340	28.3320
 1.5350	28.4640
 1.5360	28.5970
 1.5370	28.7270
 1.5380	28.8560
 1.5390	28.9860
 1.5400	29.1140
 1.5410	29.2420
 1.5420	29.3720
 1.5430	29.4990
 1.5440	29.6250
 1.5450	29.7500
 1.5460	29.8740
 1.5470	29.9970
 1.5480	30.1210
 1.5490	30.2450
 1.5500	30.3680
 1.5510	30.4900
 1.5520	30.6120
 1.5530	30.7310
 1.5540	30.8490
 1.5550	30.9670
 1.5560	31.0850
 1.5570	31.2030
 1.5580	31.3190
 1.5590	31.4330
 1.5600	31.5470
 1.5610	31.6570
 1.5620	31.7680
 1.5630	31.8790
 1.5640	31.9890
 1.5650	32.1010
 1.5660	32.2130
 1.5670	32.3240
 1.5680	32.4350
 1.5690	32.5440
 1.5700	32.6510
 1.5710	32.7580
 1.5720	32.8640
 1.5730	32.9710
 1.5740	33.0780
 1.5750	33.1830
 1.5760	33.2880
 1.5770	33.3890
 1.5780	33.4890
 1.5790	33.5890
 1.5800	33.6880
 1.5810	33.7870
 1.5820	33.8870
 1.5830	33.9860
 1.5840	34.0840
 1.5850	34.1810
 1.5860	34.2780
 1.5870	34.3740
 1.5880	34.4700
 1.5890	34.5680
 1.5900	34.6640
 1.5910	34.7610
 1.5920	34.8590
 1.5930	34.9530
 1.5940	35.0470
 1.5950	35.1410
 1.5960	35.2330
 1.5970	35.3260
 1.5980	35.4190
 1.5990	35.5090
 1.6000	35.6010
 1.6010	35.6910
 1.6020	35.7800
 1.6030	35.8690
 1.6040	35.9560
 1.6050	36.0410
 1.6060	36.1260
 1.6070	36.2120
 1.6080	36.2980
 1.6090	36.3800
 1.6100	36.4610
 1.6110	36.5400
 1.6120	36.6150
 1.6130	36.6890
 1.6140	36.7630
 1.6150	36.8350
 1.6160	36.9080
 1.6170	36.9760
 1.6180	37.0410
 1.6190	37.1040
 1.6200	37.1650
 1.6210	37.2250
 1.6220	37.2870
 1.6230	37.3500
 1.6240	37.4120
 1.6250	37.4740
 1.6260	37.5370
 1.6270	37.6000
 1.6280	37.6650
 1.6290	37.7290
 1.6300	37.7940
 1.6310	37.8570
 1.6320	37.9190
 1.6330	37.9800
 1.6340	38.0400
 1.6350	38.0990
 1.6360	38.1570
 1.6370	38.2140
 1.6380	38.2720
 1.6390	38.3290
 1.6400	38.3850
 1.6410	38.4400
 1.6420	38.4960
 1.6430	38.5490
 1.6440	38.6010
 1.6450	38.6510
 1.6460	38.6970
 1.6470	38.7400
 1.6480	38.7790
 1.6490	38.8160
 1.6500	38.8500
 1.6510	38.8810
 1.6520	38.9100
 1.6530	38.9360
 1.6540	38.9590
 1.6550	38.9790
 1.6560	38.9950
 1.6570	39.0090
 1.6580	39.0200
 1.6590	39.0310
 1.6600	39.0390
 1.6610	39.0440
 1.6620	39.0460
 1.6630	39.0450
 1.6640	39.0440
 1.6650	39.0410
 1.6660	39.0360
 1.6670	39.0290
 1.6680	39.0200
 1.6690	39.0090
 1.6700	38.9970
 1.6710	38.9830
 1.6720	38.9680
 1.6730	38.9510
 1.6740	38.9310
 1.6750	38.9090
 1.6760	38.8850
 1.6770	38.8580
 1.6780	38.8260
 1.6790	38.7920
 1.6800	38.7540
 1.6810	38.7150
 1.6820	38.6740
 1.6830	38.6290
 1.6840	38.5820
 1.6850	38.5320
 1.6860	38.4800
 1.6870	38.4280
 1.6880	38.3750
 1.6890	38.3230
 1.6900	38.2730
 1.6910	38.2250
 1.6920	38.1780
 1.6930	38.1320
 1.6940	38.0870
 1.6950	38.0440
 1.6960	38.0000
 1.6970	37.9600
 1.6980	37.9150
 1.6990	37.8680
 1.7000	37.8210
 1.7010	37.7700
 1.7020	37.7190
 1.7030	37.6690
 1.7040	37.6160
 1.7050	37.5630
 1.7060	37.5090
 1.7070	37.4530
 1.7080	37.3980
 1.7090	37.3430
 1.7100	37.2880
 1.7110	37.2330
 1.7120	37.1770
 1.7130	37.1190
 1.7140	37.0620
 1.7150	37.0030
 1.7160	36.9460
 1.7170	36.8900
 1.7180	36.8320
 1.7190	36.7770
 1.7200	36.7230
 1.7210	36.6670
 1.7220	36.6110
 1.7230	36.5540
 1.7240	36.4960
 1.7250	36.4370
 1.7260	36.3820
 1.7270	36.3260
 1.7280	36.2720
 1.7290	36.2200
 1.7300	36.1690
 1.7310	36.1190
 1.7320	36.0700
 1.7330	36.0190
 1.7340	35.9680
 1.7350	35.9150
 1.7360	35.8590
 1.7370	35.8020
 1.7380	35.7450
 1.7390	35.6840
 1.7400	35.6230
 1.7410	35.5560
 1.7420	35.4820
 1.7430	35.4100
 1.7440	35.3350
 1.7450	35.2590
 1.7460	35.1840
 1.7470	35.1070
 1.7480	35.0250
 1.7490	34.9450
 1.7500	34.8640
 1.7510	34.7850
 1.7520	34.7050
 1.7530	34.6270
 1.7540	34.5490
 1.7550	34.4730
 1.7560	34.3980
 1.7570	34.3250
 1.7580	34.2550
 1.7590	34.1860
 1.7600	34.1170
 1.7610	34.0490
 1.7620	33.9830
 1.7630	33.9170
 1.7640	33.8540
 1.7650	33.7950
 1.7660	33.7370
 1.7670	33.6810
 1.7680	33.6280
 1.7690	33.5780
 1.7700	33.5300
 1.7710	33.4840
 1.7720	33.4400
 1.7730	33.3960
 1.7740	33.3550
 1.7750	33.3150
 1.7760	33.2780
 1.7770	33.2440
 1.7780	33.2120
 1.7790	33.1850
 1.7800	33.1590
 1.7810	33.1350
 1.7820	33.1140
 1.7830	33.0960
 1.7840	33.0800
 1.7850	33.0670
 1.7860	33.0550
 1.7870	33.0440
 1.7880	33.0350
 1.7890	33.0280
 1.7900	33.0250
 1.7910	33.0240
 1.7920	33.0300
 1.7930	33.0350
 1.7940	33.0410
 1.7950	33.0480
 1.7960	33.0540
 1.7970	33.0630
 1.7980	33.0750
 1.7990	33.0870
 1.8000	33.1010
 1.8010	33.1150
 1.8020	33.1290
 1.8030	33.1440
 1.8040	33.1600
 1.8050	33.1740
 1.8060	33.1860
 1.8070	33.2020
 1.8080	33.2180
 1.8090	33.2340
 1.8100	33.2510
 1.8110	33.2620
 1.8120	33.2720
 1.8130	33.2800
 1.8140	33.2900
 1.8150	33.3000
 1.8160	33.3090
 1.8170	33.3190
 1.8180	33.3270
 1.8190	33.3350
 1.8200	33.3400
 1.8210	33.3420
 1.8220	33.3440
 1.8230	33.3450
 1.8240	33.3460
 1.8250	33.3500
 1.8260	33.3480
 1.8270	33.3430
 1.8280	33.3340
 1.8290	33.3190
 1.8300	33.3040
 1.8310	30.5620
 1.8320	30.5350
 1.8330	30.5020
 1.8340	30.4680
 1.8350	30.4290
 1.8360	30.3850
 1.8370	30.3370
 1.8380	30.2810
 1.8390	30.2160
 1.8400	30.1450
 1.8410	30.0660
 1.8420	29.9790
 1.8430	29.8870
 1.8440	29.7870
 1.8450	29.6810
 1.8460	29.5650
 1.8470	29.4360
 1.8480	29.2960
 1.8490	29.1450
 1.8500	28.9840
 1.8510	28.8140
 1.8520	28.6300
 1.8530	28.4310
 1.8540	28.2230
 1.8550	27.9990
 1.8560	27.7610
 1.8570	27.5140
 1.8580	27.2520
 1.8590	26.9790
 1.8600	26.6910
 1.8610	26.3890
 1.8620	26.0730
 1.8630	25.7480
 1.8640	25.4080
 1.8650	25.0560
 1.8660	24.6930
 1.8670	24.3110
 1.8680	23.9180
 1.8690	23.5160
 1.8700	23.1010
 1.8710	22.6730
 1.8720	22.2440
 1.8730	21.8120
 1.8740	21.3770
 1.8750	20.9490
 1.8760	20.5230
 1.8770	20.1030
 1.8780	19.6950
 1.8790	19.2970
 1.8800	18.9160
 1.8810	18.5470
 1.8820	18.1930
 1.8830	17.8510
 1.8840	17.5250
 1.8850	17.2150
 1.8860	16.9220
 1.8870	16.6500
 1.8880	16.3930
 1.8890	16.1550
 1.8900	15.9390
 1.8910	15.7390
 1.8920	15.5560
 1.8930	15.3930
 1.8940	15.2460
 1.8950	15.1110
 1.8960	14.9900
 1.8970	14.8860
 1.8980	14.7950
 1.8990	14.7130
 1.9000	14.6400
 1.9010	14.5810
 1.9020	14.5240
 1.9030	14.4750
 1.9040	14.4330
 1.9050	14.3950
 1.9060	14.3600
 1.9070	14.3330
 1.9080	14.3100
 1.9090	14.2910
 1.9100	14.2750
 1.9110	14.2600
 1.9120	14.2450
 1.9130	14.2340
 1.9140	14.2240
 1.9150	14.2180
 1.9160	14.2130
 1.9170	14.2090
 1.9180	14.2060
 1.9190	14.2020
 1.9200	14.1990
 1.9210	14.1980
 1.9220	14.1960
 1.9230	14.1940
 1.9240	14.1920
 1.9250	14.1910
 1.9260	14.1890
 1.9270	14.1890
 1.9280	14.1900
 1.9290	14.1920
 1.9300	14.1950
 1.9310	14.1990
 1.9320	14.2030
 1.9330	14.2070
 1.9340	14.2120
 1.9350	14.2160
 1.9360	14.2200
 1.9370	14.2250
 1.9380	14.2310
 1.9390	14.2360
 1.9400	14.2410
 1.9410	14.2460
 1.9420	14.2520
 1.9430	14.2580
 1.9440	14.2660
 1.9450	14.2750
 1.9460	14.2850
 1.9470	14.2960
 1.9480	14.3070
 1.9490	14.3210
 1.9500	14.3310
 1.9510	14.3400
 1.9520	14.3510
 1.9530	14.3600
 1.9540	14.3710
 1.9550	14.3830
 1.9560	14.3970
 1.9570	14.4110
 1.9580	14.4260
 1.9590	14.4390
 1.9600	14.4520
 1.9610	14.4650
 1.9620	14.4770
 1.9630	14.4890
 1.9640	14.5030
 1.9650	14.5190
 1.9660	14.5340
 1.9670	14.5510
 1.9680	14.5660
 1.9690	14.5800
 1.9700	14.5960
 1.9710	14.6120
 1.9720	14.6300
 1.9730	14.6480
 1.9740	14.6670
 1.9750	14.6860
 1.9760	14.7050
 1.9770	14.7230
 1.9780	14.7440
 1.9790	14.7660
 1.9800	14.7880
 1.9810	14.8110
 1.9820	14.8340
 1.9830	14.8590
 1.9840	14.8860
 1.9850	14.9130
 1.9860	14.9420
 1.9870	14.9710
 1.9880	14.9980
 1.9890	15.0230
 1.9900	15.0480
 1.9910	15.0750
 1.9920	15.1020
 1.9930	15.1320
 1.9940	15.1610
 1.9950	15.1890
 1.9960	15.2190
 1.9970	15.2500
 1.9980	15.2800
 1.9990	15.3090
 2.0000	15.3390
 2.0010	15.3730
 2.0020	15.4050
 2.0030	15.4370
 2.0040	15.4710
 2.0050	15.5030
 2.0060	15.5290
 2.0070	15.5600
 2.0080	15.5920
 2.0090	15.6240
 2.0100	15.6570
 2.0110	15.6890
 2.0120	15.7200
 2.0130	15.7510
 2.0140	15.7830
 2.0150	15.8170
 2.0160	15.8520
 2.0170	15.8890
 2.0180	15.9240
 2.0190	15.9600
 2.0200	15.9940
 2.0210	16.0270
 2.0220	16.0610
 2.0230	16.0950
 2.0240	16.1290
 2.0250	16.1630
 2.0260	16.1980
 2.0270	16.2320
 2.0280	16.2680
 2.0290	16.3020
 2.0300	16.3390
 2.0310	16.3740
 2.0320	16.4100
 2.0330	16.4450
 2.0340	16.4800
 2.0350	16.5150
 2.0360	16.5490
 2.0370	16.5840
 2.0380	16.6180
 2.0390	16.6520
 2.0400	16.6870
 2.0410	16.7210
 2.0420	16.7540
 2.0430	16.7880
 2.0440	16.8220
 2.0450	16.8550
 2.0460	16.8880
 2.0470	16.9210
 2.0480	16.9530
 2.0490	16.9840
 2.0500	17.0170
 2.0510	17.0490
 2.0520	17.0820
 2.0530	17.1150
 2.0540	17.1490
 2.0550	17.1850
 2.0560	17.2200
 2.0570	17.2560
 2.0580	17.2910
 2.0590	17.3260
 2.0600	17.3590
 2.0610	17.3940
 2.0620	17.4300
 2.0630	17.4650
 2.0640	17.4990
 2.0650	17.5340
 2.0660	17.5690
 2.0670	17.6040
 2.0680	17.6440
 2.0690	17.6800
 2.0700	17.7120
 2.0710	17.7470
 2.0720	17.7830
 2.0730	17.8190
 2.0740	17.8560
 2.0750	17.8970
 2.0760	17.9360
 2.0770	17.9760
 2.0780	18.0140
 2.0790	18.0510
 2.0800	18.0880
 2.0810	18.1230
 2.0820	18.1590
 2.0830	18.1960
 2.0840	18.2340
 2.0850	18.2720
 2.0860	18.3100
 2.0870	18.3490
 2.0880	18.3870
 2.0890	18.4240
 2.0900	18.4610
 2.0910	18.4990
 2.0920	18.5350
 2.0930	18.5730
 2.0940	18.6110
 2.0950	18.6480
 2.0960	18.6850
 2.0970	18.7220
 2.0980	18.7580
 2.0990	18.7960
 2.1000	18.8360
 2.1010	18.8750
 2.1020	18.9140
 2.1030	18.9540
 2.1040	18.9920
 2.1050	19.0320
 2.1060	19.0740
 2.1070	19.1170
 2.1080	19.1590
 2.1090	19.2020
 2.1100	19.2430
 2.1110	19.2820
 2.1120	19.3220
 2.1130	19.3600
 2.1140	19.4000
 2.1150	19.4410
 2.1160	19.4840
 2.1170	19.5270
 2.1180	19.5710
 2.1190	19.6170
 2.1200	19.6600
 2.1210	19.7020
 2.1220	19.7450
 2.1230	19.7860
 2.1240	19.8270
 2.1250	19.8670
 2.1260	19.9080
 2.1270	19.9470
 2.1280	19.9830
 2.1290	20.0190
 2.1300	20.0530
 2.1310	20.0890
 2.1320	20.1270
 2.1330	20.1630
 2.1340	20.2010
 2.1350	20.2360
 2.1360	20.2660
 2.1370	20.2980
 2.1380	20.3310
 2.1390	20.3630
 2.1400	20.3980
 2.1410	20.4300
 2.1420	20.4600
 2.1430	20.4890
 2.1440	20.5170
 2.1450	20.5430
 2.1460	20.5700
 2.1470	20.5960
 2.1480	20.6240
 2.1490	20.6520
 2.1500	20.6780
 2.1510	20.7050
 2.1520	20.7310
 2.1530	20.7560
 2.1540	20.7810
 2.1550	20.8070
 2.1560	20.8310
 2.1570	20.8530
 2.1580	20.8750
 2.1590	20.8970
 2.1600	20.9160
 2.1610	20.9370
 2.1620	20.9560
 2.1630	20.9750
 2.1640	20.9920
 2.1650	21.0100
 2.1660	21.0280
 2.1670	21.0450
 2.1680	21.0600
 2.1690	21.0770
 2.1700	21.0930
 2.1710	21.1110
 2.1720	21.1310
 2.1730	21.1500
 2.1740	21.1690
 2.1750	21.1870
 2.1760	21.2050
 2.1770	21.2230
 2.1780	21.2430
 2.1790	21.2630
 2.1800	21.2840
 2.1810	21.3040
 2.1820	21.3220
 2.1830	21.3410
 2.1840	21.3610
 2.1850	21.3820
 2.1860	21.4020
 2.1870	21.4250
 2.1880	21.4450
 2.1890	21.4660
 2.1900	21.4840
 2.1910	21.5000
 2.1920	21.5160
 2.1930	21.5280
 2.1940	21.5430
 2.1950	21.5610
 2.1960	21.5770
 2.1970	21.5940
 2.1980	21.6110
 2.1990	21.6280
 2.2000	21.6430
 2.2010	21.6590
 2.2020	21.6720
 2.2030	21.6770
 2.2040	21.6870
 2.2050	21.7000
 2.2060	21.7100
 2.2070	21.7210
 2.2080	21.7350
 2.2090	21.7450
 2.2100	21.7530
 2.2110	21.7620
 2.2120	21.7710
 2.2130	21.7770
 2.2140	21.7840
 2.2150	21.7860
 2.2160	21.7820
 2.2170	21.7790
 2.2180	21.7730
 2.2190	21.7660
 2.2200	21.7600
 2.2210	21.7520
 2.2220	21.7420
 2.2230	21.7310
 2.2240	21.7180
 2.2250	21.7040
 2.2260	21.6870
 2.2270	21.6700
 2.2280	21.6550
 2.2290	21.6360
 2.2300	21.6160
 2.2310	21.5940
 2.2320	21.5700
 2.2330	21.5450
 2.2340	21.5190
 2.2350	21.4930
 2.2360	21.4620
 2.2370	21.4300
 2.2380	21.3950
 2.2390	21.3550
 2.2400	21.3190
 2.2410	21.2860
 2.2420	21.2480
 2.2430	21.2120
 2.2440	21.1740
 2.2450	21.1340
 2.2460	21.0920
 2.2470	21.0480
 2.2480	21.0030
 2.2490	20.9530
 2.2500	20.9060
 2.2510	20.8600
 2.2520	20.8130
 2.2530	20.7650
 2.2540	20.7170
 2.2550	20.6670
 2.2560	20.6170
 2.2570	20.5680
 2.2580	20.5170
 2.2590	20.4640
 2.2600	20.4130
 2.2610	20.3600
 2.2620	20.3110
 2.2630	20.2620
 2.2640	20.2150
 2.2650	20.1690
 2.2660	20.1230
 2.2670	20.0800
 2.2680	20.0390
 2.2690	19.9980
 2.2700	19.9590
 2.2710	19.9200
 2.2720	19.8800
 2.2730	19.8410
 2.2740	19.8020
 2.2750	19.7660
 2.2760	19.7300
 2.2770	19.6980
 2.2780	19.6700
 2.2790	19.6400
 2.2800	19.6130
 2.2810	19.5850
 2.2820	19.5560
 2.2830	19.5260
 2.2840	19.4950
 2.2850	19.4650
 2.2860	19.4310
 2.2870	19.4020
 2.2880	19.3750
 2.2890	19.3470
 2.2900	19.3220
 2.2910	19.2920
 2.2920	19.2570
 2.2930	19.2230
 2.2940	19.1890
 2.2950	19.1540
 2.2960	19.1200
 2.2970	19.0880
 2.2980	19.0560
 2.2990	19.0230
 2.3000	18.9890
 2.3010	18.9570
 2.3020	18.9250
 2.3030	18.8910
 2.3040	18.8610
 2.3050	18.8330
 2.3060	18.8040
 2.3070	18.7790
 2.3080	18.7550
 2.3090	18.7320
 2.3100	18.7110
 2.3110	18.6920
 2.3120	18.6780
 2.3130	18.6690
 2.3140	18.6570
 2.3150	18.6490
 2.3160	18.6400
 2.3170	18.6310
 2.3180	18.6210
 2.3190	18.6120
 2.3200	18.6000
 2.3210	18.5860
 2.3220	18.5710
 2.3230	18.5570
 2.3240	18.5370
 2.3250	18.5100
 2.3260	18.4870
 2.3270	18.4600
 2.3280	18.4370
 2.3290	18.4190
 2.3300	18.3960
 2.3310	18.3690
 2.3320	18.3450
 2.3330	18.3210
 2.3340	18.2960
 2.3350	18.2760
 2.3360	18.2490
 2.3370	18.2140
 2.3380	18.1860
 2.3390	18.1610
 2.3400	18.1330
 2.3410	18.1080
 2.3420	18.0810
 2.3430	18.0500
 2.3440	18.0220
 2.3450	17.9950
 2.3460	17.9710
 2.3470	17.9500
 2.3480	17.9280
 2.3490	17.9080
 2.3500	17.8890
 2.3510	17.8730
 2.3520	17.8560
 2.3530	17.8400
 2.3540	17.8250
 2.3550	17.8110
 2.3560	17.7890
 2.3570	17.7700
 2.3580	17.7540
 2.3590	17.7320
 2.3600	17.7180
 2.3610	17.7030
 2.3620	17.6840
 2.3630	17.6710
 2.3640	17.6490
 2.3650	17.6240
 2.3660	17.5990
 2.3670	17.5710
 2.3680	17.5500
 2.3690	17.5390
 2.3700	17.5220
 2.3710	17.5010
 2.3720	17.4830
 2.3730	17.4550
 2.3740	17.4270
 2.3750	17.4050
 2.3760	17.3790
 2.3770	17.3630
 2.3780	17.3490
 2.3790	17.3240
 2.3800	17.2980
 2.3810	17.2700
 2.3820	17.2420
 2.3830	17.2250
 2.3840	17.2120
 2.3850	17.1970
 2.3860	17.1780
 2.3870	17.1540
 2.3880	17.1340
 2.3890	17.1230
 2.3900	17.1080
 2.3910	17.0920
 2.3920	17.0790
 2.3930	17.0570
 2.3940	17.0400
 2.3950	17.0230
 2.3960	16.9990
 2.3970	16.9850
 2.3980	16.9630
 2.3990	16.9430
 2.4000	16.9320
 2.4010	16.9130
 2.4020	16.8930
 2.4030	16.8770
 2.4040	16.8670
 2.4050	16.8580
 2.4060	16.8430
 2.4070	16.8220
 2.4080	16.7960
 2.4090	16.7680
 2.4100	16.7430
 2.4110	16.7310
 2.4120	16.7130
 2.4130	16.6920
 2.4140	16.6770
 2.4150	16.6570
 2.4160	16.6440
 2.4170	16.6270
 2.4180	16.6090
 2.4190	16.6010
 2.4200	16.5860
 2.4210	16.5770
 2.4220	16.5650
 2.4230	16.5480
 2.4240	16.5400
 2.4250	16.5200
 2.4260	16.5000
 2.4270	16.4820
 2.4280	16.4480
 2.4290	16.4260
 2.4300	16.4160
 2.4310	16.4000
 2.4320	16.3950
 2.4330	16.3870
 2.4340	16.3650
 2.4350	16.3540
 2.4360	16.3380
 2.4370	16.3300
 2.4380	16.3300
 2.4390	16.3070
 2.4400	16.2800
 2.4410	16.2570
 2.4420	16.2300
 2.4430	16.2180
 2.4440	16.2080
 2.4450	16.1940
 2.4460	16.1840
 2.4470	16.1650
 2.4480	16.1620
 2.4490	16.1530
 2.4500	16.1380
 2.4510	16.1440
 2.4520	16.1220
 2.4530	16.1050
 2.4540	16.0920
 2.4550	16.0580
 2.4560	16.0490
 2.4570	16.0560
 2.4580	16.0440
 2.4590	16.0360
 2.4600	16.0350
 2.4610	16.0090
 2.4620	15.9880
 2.4630	15.9940
 2.4640	15.9860
 2.4650	15.9810
 2.4660	15.9960
 2.4670	15.9990
 2.4680	16.0000
 2.4690	15.9760
 2.4700	15.9550
 2.4710	15.9080
 2.4720	15.8870
 2.4730	15.8930
 2.4740	15.8930
 2.4750	15.9090
 2.4760	15.9120
 2.4770	15.9020
 2.4780	15.8940
 2.4790	15.8850
 2.4800	15.8750
 2.4810	15.8650
 2.4820	15.8590
 2.4830	15.8500
 2.4840	15.8630
 2.4850	15.8740
 2.4860	15.8750
 2.4870	15.8660
 2.4880	15.8460
 2.4890	15.8650
 2.4900	15.8820
 2.4910	15.8970
 2.4920	15.9150
 2.4930	15.8880
 2.4940	15.8690
 2.4950	15.8790
 2.4960	15.9240
 2.4970	15.9500
 2.4980	15.9600
 2.4990	15.9960
 2.5000	15.9700
