Name: Quercus lobata 3
Type: vegetation
Class: Tree
Genus: Quercus
Species: lobata
Sample No.: VH186
Owner: UCSB
Wavelength Range: TIR
Origin: 34.7151; -120.0588; WGS84
Collection Date: 6/9/2013
Description: Samples were collected as part of the HyspIRI Airborne Campaign. 48 individual plants were sampled in three times in 2013 - spring  summer  and fall. The name of the sample includes a 1  2  or 3 which references a different individual of the species. Samples were taken to JPL and processed within 48 hours of collection. The same leaves were processed in the Nicolet and then measured using the ASD.
Measurement: Hemispherical reflectance
First Column: X
Second Column: Y
X Units: Wavelength (micrometers)
Y Units: Reflectance (percentage)
First X Value: 2.501
Last X Value: 15.387
Number of X Values: 1737
Additional Information: vegetation.tree.quercus.lobata.tir.vh186.ucsb.nicolet.ancillary.txt

 2.5010	10.0930
 2.5030	10.1360
 2.5040	10.0370
 2.5050	10.0400
 2.5060	10.0980
 2.5070	 9.9570
 2.5090	 9.9640
 2.5100	10.0550
 2.5110	 9.9340
 2.5120	 9.7760
 2.5140	 9.8660
 2.5150	 9.8700
 2.5160	 9.9310
 2.5170	 9.9430
 2.5180	10.0400
 2.5200	10.0340
 2.5210	 9.9270
 2.5220	 9.6840
 2.5230	 9.6930
 2.5250	 9.8220
 2.5260	10.0260
 2.5270	10.0310
 2.5280	10.0150
 2.5290	 9.9770
 2.5310	 9.9830
 2.5320	 9.9570
 2.5330	 9.9350
 2.5340	 9.8290
 2.5360	 9.8560
 2.5370	 9.8540
 2.5380	10.0320
 2.5390	10.1570
 2.5410	 9.9950
 2.5420	 9.8250
 2.5430	 9.9130
 2.5440	 9.9210
 2.5460	 9.9800
 2.5470	10.0060
 2.5480	 9.9370
 2.5490	 9.8530
 2.5510	 9.9720
 2.5520	 9.9690
 2.5530	 9.9880
 2.5540	 9.9850
 2.5560	10.0260
 2.5570	 9.9910
 2.5580	10.0700
 2.5590	 9.9950
 2.5610	 9.9600
 2.5620	 9.9240
 2.5630	10.0060
 2.5640	10.0240
 2.5660	10.0250
 2.5670	 9.9340
 2.5680	10.0140
 2.5700	10.0450
 2.5710	10.0070
 2.5720	10.0800
 2.5730	10.3130
 2.5750	10.2540
 2.5760	10.1830
 2.5770	10.1340
 2.5790	10.1790
 2.5800	10.0020
 2.5810	 9.9730
 2.5820	10.0320
 2.5840	10.0710
 2.5850	10.2180
 2.5860	10.2090
 2.5880	 9.9810
 2.5890	 9.8450
 2.5900	 9.8100
 2.5910	 9.9120
 2.5930	10.0090
 2.5940	 9.9430
 2.5950	 9.8940
 2.5970	 9.8850
 2.5980	 9.8750
 2.5990	10.0500
 2.6000	10.0160
 2.6020	 9.9470
 2.6030	 9.8410
 2.6040	 9.8720
 2.6060	 9.8690
 2.6070	 9.8310
 2.6080	 9.7690
 2.6100	 9.8220
 2.6110	 9.7890
 2.6120	 9.7800
 2.6140	 9.7760
 2.6150	 9.7750
 2.6160	 9.7150
 2.6180	 9.7590
 2.6190	 9.7770
 2.6200	 9.7630
 2.6220	 9.5250
 2.6230	 9.4020
 2.6240	 9.5060
 2.6260	 9.5710
 2.6270	 9.3230
 2.6280	 9.1690
 2.6300	 9.1650
 2.6310	 9.3770
 2.6320	 9.2930
 2.6340	 9.3160
 2.6350	 9.1980
 2.6360	 9.1410
 2.6380	 9.1070
 2.6390	 9.1950
 2.6400	 9.1220
 2.6420	 9.0680
 2.6430	 9.0500
 2.6440	 9.0670
 2.6460	 9.0030
 2.6470	 9.0170
 2.6480	 8.9230
 2.6500	 8.8670
 2.6510	 8.7940
 2.6520	 8.7140
 2.6540	 8.5950
 2.6550	 8.6250
 2.6560	 8.6270
 2.6580	 8.6460
 2.6590	 8.5210
 2.6610	 8.5360
 2.6620	 8.6620
 2.6630	 8.7310
 2.6650	 8.6410
 2.6660	 8.5180
 2.6670	 8.4340
 2.6690	 8.4250
 2.6700	 8.3360
 2.6720	 8.2440
 2.6730	 8.2580
 2.6740	 8.3720
 2.6760	 8.3800
 2.6770	 8.3720
 2.6780	 8.1620
 2.6800	 8.0540
 2.6810	 8.0510
 2.6830	 8.1510
 2.6840	 8.1950
 2.6850	 8.1770
 2.6870	 8.0380
 2.6880	 7.9130
 2.6900	 7.8170
 2.6910	 7.8820
 2.6920	 7.9040
 2.6940	 7.8510
 2.6950	 7.7230
 2.6970	 7.6460
 2.6980	 7.4530
 2.6990	 7.4010
 2.7010	 7.3110
 2.7020	 7.2950
 2.7040	 7.2580
 2.7050	 7.1310
 2.7060	 7.0670
 2.7080	 7.1110
 2.7090	 7.0730
 2.7110	 7.1340
 2.7120	 6.9760
 2.7130	 6.8540
 2.7150	 6.8010
 2.7160	 6.7620
 2.7180	 6.6430
 2.7190	 6.7180
 2.7210	 6.6200
 2.7220	 6.4090
 2.7230	 6.2410
 2.7250	 6.1640
 2.7260	 6.0220
 2.7280	 5.8140
 2.7290	 5.6070
 2.7310	 5.7040
 2.7320	 5.6380
 2.7330	 5.5950
 2.7350	 5.5450
 2.7360	 5.3390
 2.7380	 5.2410
 2.7390	 5.3030
 2.7410	 5.2730
 2.7420	 5.3570
 2.7440	 5.2350
 2.7450	 4.9960
 2.7470	 4.7110
 2.7480	 4.6240
 2.7490	 4.4970
 2.7510	 4.7000
 2.7520	 5.0720
 2.7540	 5.0630
 2.7550	 4.6890
 2.7570	 4.7720
 2.7580	 4.7650
 2.7600	 4.7650
 2.7610	 4.7660
 2.7630	 4.6050
 2.7640	 4.2640
 2.7660	 4.2210
 2.7670	 4.1830
 2.7680	 4.3120
 2.7700	 4.2730
 2.7710	 4.3150
 2.7730	 4.1240
 2.7740	 3.9730
 2.7760	 3.8570
 2.7770	 3.9100
 2.7790	 3.8520
 2.7800	 3.9890
 2.7820	 4.0820
 2.7830	 4.0240
 2.7850	 3.9310
 2.7860	 3.9590
 2.7880	 4.0400
 2.7890	 4.0060
 2.7910	 3.7780
 2.7920	 3.6810
 2.7940	 3.5260
 2.7950	 3.5690
 2.7970	 3.6300
 2.7980	 3.7020
 2.8000	 3.6340
 2.8010	 3.5440
 2.8030	 3.4870
 2.8040	 3.5770
 2.8060	 3.5200
 2.8070	 3.5280
 2.8090	 3.6780
 2.8110	 3.9170
 2.8120	 3.6240
 2.8140	 3.4700
 2.8150	 3.4050
 2.8170	 3.5790
 2.8180	 3.6850
 2.8200	 3.7850
 2.8210	 3.6460
 2.8230	 3.4710
 2.8240	 3.3880
 2.8260	 3.3940
 2.8270	 3.3190
 2.8290	 3.6580
 2.8300	 3.6680
 2.8320	 3.4560
 2.8340	 3.2980
 2.8350	 3.4090
 2.8370	 3.3770
 2.8380	 3.3650
 2.8400	 3.2940
 2.8410	 3.4000
 2.8430	 3.4270
 2.8440	 3.4670
 2.8460	 3.3560
 2.8480	 3.3690
 2.8490	 3.4250
 2.8510	 3.4800
 2.8520	 3.3200
 2.8540	 3.2350
 2.8550	 3.2700
 2.8570	 3.2440
 2.8590	 3.1480
 2.8600	 3.2580
 2.8620	 3.3010
 2.8630	 3.4450
 2.8650	 3.4460
 2.8660	 3.4110
 2.8680	 3.1960
 2.8700	 3.1890
 2.8710	 3.2010
 2.8730	 3.1640
 2.8740	 3.0200
 2.8760	 3.1770
 2.8780	 3.3020
 2.8790	 3.4580
 2.8810	 3.5100
 2.8820	 3.2900
 2.8840	 3.1650
 2.8860	 3.3290
 2.8870	 3.3160
 2.8890	 3.2320
 2.8900	 3.1010
 2.8920	 3.1680
 2.8940	 3.1330
 2.8950	 3.2260
 2.8970	 3.2100
 2.8980	 3.2580
 2.9000	 3.2240
 2.9020	 3.2000
 2.9030	 3.0930
 2.9050	 3.1840
 2.9070	 3.3010
 2.9080	 3.3800
 2.9100	 3.3260
 2.9120	 3.2030
 2.9130	 3.2310
 2.9150	 3.3200
 2.9160	 3.2740
 2.9180	 3.3080
 2.9200	 3.1360
 2.9210	 3.2140
 2.9230	 3.2600
 2.9250	 3.2880
 2.9260	 3.1830
 2.9280	 3.0280
 2.9300	 3.0540
 2.9310	 3.2970
 2.9330	 3.2630
 2.9350	 3.1870
 2.9360	 3.1210
 2.9380	 3.3130
 2.9400	 3.4070
 2.9410	 3.4040
 2.9430	 3.3250
 2.9450	 3.4200
 2.9460	 3.0640
 2.9480	 2.9570
 2.9500	 3.0140
 2.9510	 3.1330
 2.9530	 3.1360
 2.9550	 3.5740
 2.9560	 3.6480
 2.9580	 3.7920
 2.9600	 3.4990
 2.9610	 2.8890
 2.9630	 2.5140
 2.9650	 2.8600
 2.9660	 3.0720
 2.9680	 3.8880
 2.9700	 4.6990
 2.9720	 5.1920
 2.9730	 4.2290
 2.9750	 2.9740
 2.9770	 3.9650
 2.9780	 4.1250
 2.9800	 3.9770
 2.9820	 3.4560
 2.9840	 3.3710
 2.9850	 3.5200
 2.9870	 2.4290
 2.9890	 2.7690
 2.9900	 3.6350
 2.9920	 4.4430
 2.9940	 4.0100
 2.9960	 2.4890
 2.9970	 2.3330
 2.9990	 3.1820
 3.0010	 3.4410
 3.0030	 3.3380
 3.0040	 3.3350
 3.0060	 3.2500
 3.0080	 3.1440
 3.0100	 3.1370
 3.0110	 3.4230
 3.0130	 3.2510
 3.0150	 2.9590
 3.0170	 3.5080
 3.0180	 3.5930
 3.0200	 3.3420
 3.0220	 3.5020
 3.0240	 3.4800
 3.0250	 3.2600
 3.0270	 3.3260
 3.0290	 3.4030
 3.0310	 3.3440
 3.0320	 3.6760
 3.0340	 3.5740
 3.0360	 3.0240
 3.0380	 3.0120
 3.0400	 3.1010
 3.0410	 3.5240
 3.0430	 3.6430
 3.0450	 3.6780
 3.0470	 3.8090
 3.0480	 3.0580
 3.0500	 2.1630
 3.0520	 1.9110
 3.0540	 1.6780
 3.0560	 3.2150
 3.0570	 5.1190
 3.0590	 4.3500
 3.0610	 2.4910
 3.0630	 2.1370
 3.0650	 2.7410
 3.0660	 3.2450
 3.0680	 3.7880
 3.0700	 4.2890
 3.0720	 3.2540
 3.0740	 2.8840
 3.0760	 3.0450
 3.0770	 3.4660
 3.0790	 3.5920
 3.0810	 3.7300
 3.0830	 3.6700
 3.0850	 3.6240
 3.0870	 3.5620
 3.0880	 3.5520
 3.0900	 3.4500
 3.0920	 3.7390
 3.0940	 3.7200
 3.0960	 3.5190
 3.0980	 3.4880
 3.0990	 3.6150
 3.1010	 3.6080
 3.1030	 3.6420
 3.1050	 3.5420
 3.1070	 3.5400
 3.1090	 3.6510
 3.1110	 3.6970
 3.1120	 3.5120
 3.1140	 3.6530
 3.1160	 3.7630
 3.1180	 3.7910
 3.1200	 3.7610
 3.1220	 3.5190
 3.1240	 3.6320
 3.1260	 3.7370
 3.1270	 3.4110
 3.1290	 3.3710
 3.1310	 3.6280
 3.1330	 3.9880
 3.1350	 4.4020
 3.1370	 3.5360
 3.1390	 3.1940
 3.1410	 4.1940
 3.1430	 4.7980
 3.1450	 4.3310
 3.1460	 3.3820
 3.1480	 3.4500
 3.1500	 4.3190
 3.1520	 4.5390
 3.1540	 4.0320
 3.1560	 4.1190
 3.1580	 4.3740
 3.1600	 4.7220
 3.1620	 4.4870
 3.1640	 4.3970
 3.1660	 3.8560
 3.1680	 2.7830
 3.1700	 2.3690
 3.1710	 2.8860
 3.1730	 3.5540
 3.1750	 4.6300
 3.1770	 5.0720
 3.1790	 4.6170
 3.1810	 4.3330
 3.1830	 4.3660
 3.1850	 4.4100
 3.1870	 4.3720
 3.1890	 4.3790
 3.1910	 4.4590
 3.1930	 4.2680
 3.1950	 4.2960
 3.1970	 4.3240
 3.1990	 4.3280
 3.2010	 4.3010
 3.2030	 4.3420
 3.2050	 4.3470
 3.2070	 4.4400
 3.2090	 4.3580
 3.2110	 4.2730
 3.2130	 4.3080
 3.2150	 4.4750
 3.2170	 4.5620
 3.2190	 4.6470
 3.2210	 4.6130
 3.2230	 4.6900
 3.2250	 4.5960
 3.2270	 4.5080
 3.2290	 4.3900
 3.2310	 4.3620
 3.2330	 4.2980
 3.2350	 4.4870
 3.2370	 4.6130
 3.2390	 4.7830
 3.2410	 4.8730
 3.2430	 5.0450
 3.2450	 4.9320
 3.2470	 4.5820
 3.2490	 4.5130
 3.2510	 4.5560
 3.2530	 4.5030
 3.2550	 4.5100
 3.2570	 4.6710
 3.2590	 4.9980
 3.2610	 4.8540
 3.2630	 4.6220
 3.2650	 4.7060
 3.2670	 5.2160
 3.2690	 5.5830
 3.2720	 5.4160
 3.2740	 4.9520
 3.2760	 4.9340
 3.2780	 5.0500
 3.2800	 5.0610
 3.2820	 5.1230
 3.2840	 5.1510
 3.2860	 5.1480
 3.2880	 5.0910
 3.2900	 5.1710
 3.2920	 5.3150
 3.2940	 5.2400
 3.2960	 5.1560
 3.2990	 5.2660
 3.3010	 5.4290
 3.3030	 5.3900
 3.3050	 5.3500
 3.3070	 5.4260
 3.3090	 5.4920
 3.3110	 5.1750
 3.3130	 5.1510
 3.3150	 5.4210
 3.3180	 5.4600
 3.3200	 5.1890
 3.3220	 5.2310
 3.3240	 5.4360
 3.3260	 5.4410
 3.3280	 5.3310
 3.3300	 5.4530
 3.3330	 5.5130
 3.3350	 5.4570
 3.3370	 5.2230
 3.3390	 5.1440
 3.3410	 5.1710
 3.3430	 5.3140
 3.3450	 5.2890
 3.3480	 5.4010
 3.3500	 5.3090
 3.3520	 5.1860
 3.3540	 5.1750
 3.3560	 5.1630
 3.3580	 4.9660
 3.3610	 4.9350
 3.3630	 4.9550
 3.3650	 5.0360
 3.3670	 5.0130
 3.3690	 4.9910
 3.3720	 4.9500
 3.3740	 4.9170
 3.3760	 4.8030
 3.3780	 4.8310
 3.3800	 4.8200
 3.3830	 4.8260
 3.3850	 4.7670
 3.3870	 4.8080
 3.3890	 4.6260
 3.3910	 4.4150
 3.3940	 4.3570
 3.3960	 4.5670
 3.3980	 4.6030
 3.4000	 4.4950
 3.4020	 4.4020
 3.4050	 4.5390
 3.4070	 4.6440
 3.4090	 4.6570
 3.4110	 4.6340
 3.4140	 4.7430
 3.4160	 4.7770
 3.4180	 4.9280
 3.4200	 5.0830
 3.4230	 5.2720
 3.4250	 5.4280
 3.4270	 5.7500
 3.4290	 5.8520
 3.4320	 5.8360
 3.4340	 5.6980
 3.4360	 5.6060
 3.4390	 5.5910
 3.4410	 5.5530
 3.4430	 5.4200
 3.4450	 5.5220
 3.4480	 5.3920
 3.4500	 5.2920
 3.4520	 5.4500
 3.4550	 5.4960
 3.4570	 5.4570
 3.4590	 5.3880
 3.4620	 5.4610
 3.4640	 5.5470
 3.4660	 5.4310
 3.4680	 5.4190
 3.4710	 5.5110
 3.4730	 5.6440
 3.4750	 5.5680
 3.4780	 5.4930
 3.4800	 5.4510
 3.4820	 5.5530
 3.4850	 5.5910
 3.4870	 5.5100
 3.4890	 5.3940
 3.4920	 5.4030
 3.4940	 5.3640
 3.4970	 5.3130
 3.4990	 5.2750
 3.5010	 5.3090
 3.5040	 5.3910
 3.5060	 5.7020
 3.5080	 6.0070
 3.5110	 6.1850
 3.5130	 6.2680
 3.5160	 6.4310
 3.5180	 6.4840
 3.5200	 6.4390
 3.5230	 6.4180
 3.5250	 6.5460
 3.5270	 6.6370
 3.5300	 6.6800
 3.5320	 6.6740
 3.5350	 6.7510
 3.5370	 6.7650
 3.5400	 6.7530
 3.5420	 6.7190
 3.5440	 6.8030
 3.5470	 6.8150
 3.5490	 6.9030
 3.5520	 6.7880
 3.5540	 6.7680
 3.5570	 6.8420
 3.5590	 6.9230
 3.5610	 6.8970
 3.5640	 6.9520
 3.5660	 7.0450
 3.5690	 7.1740
 3.5710	 7.1510
 3.5740	 7.1090
 3.5760	 7.1350
 3.5790	 7.1170
 3.5810	 7.0760
 3.5840	 7.1720
 3.5860	 7.1140
 3.5890	 7.0630
 3.5910	 7.0380
 3.5930	 7.0970
 3.5960	 7.3380
 3.5980	 7.4790
 3.6010	 7.3630
 3.6030	 7.1350
 3.6060	 7.0210
 3.6080	 7.2180
 3.6110	 7.3090
 3.6140	 7.4040
 3.6160	 7.3400
 3.6190	 7.2790
 3.6210	 7.2070
 3.6240	 7.2460
 3.6260	 7.3050
 3.6290	 7.3050
 3.6310	 7.3230
 3.6340	 7.3840
 3.6360	 7.2600
 3.6390	 7.2940
 3.6410	 7.3710
 3.6440	 7.4050
 3.6470	 7.3160
 3.6490	 7.2330
 3.6520	 7.2110
 3.6540	 7.2480
 3.6570	 7.3160
 3.6590	 7.3470
 3.6620	 7.2770
 3.6650	 7.3040
 3.6670	 7.3140
 3.6700	 7.3610
 3.6720	 7.3180
 3.6750	 7.3540
 3.6780	 7.3860
 3.6800	 7.3680
 3.6830	 7.2830
 3.6850	 7.3220
 3.6880	 7.3340
 3.6910	 7.3730
 3.6930	 7.3820
 3.6960	 7.3760
 3.6990	 7.3430
 3.7010	 7.3830
 3.7040	 7.3950
 3.7060	 7.4250
 3.7090	 7.4580
 3.7120	 7.5010
 3.7140	 7.4680
 3.7170	 7.4740
 3.7200	 7.5460
 3.7220	 7.5820
 3.7250	 7.4880
 3.7280	 7.3940
 3.7300	 7.4240
 3.7330	 7.4410
 3.7360	 7.3800
 3.7390	 7.5600
 3.7410	 7.5610
 3.7440	 7.5410
 3.7470	 7.5690
 3.7490	 7.5500
 3.7520	 7.5470
 3.7550	 7.7440
 3.7580	 7.7470
 3.7600	 7.6970
 3.7630	 7.6700
 3.7660	 7.6460
 3.7680	 7.6250
 3.7710	 7.6950
 3.7740	 7.6990
 3.7770	 7.6640
 3.7790	 7.7400
 3.7820	 7.7970
 3.7850	 7.7370
 3.7880	 7.7100
 3.7900	 7.6660
 3.7930	 7.6930
 3.7960	 7.6210
 3.7990	 7.6170
 3.8020	 7.6640
 3.8040	 7.7550
 3.8070	 7.8160
 3.8100	 7.8160
 3.8130	 7.7010
 3.8160	 7.7500
 3.8180	 7.8630
 3.8210	 7.9160
 3.8240	 7.7710
 3.8270	 7.7660
 3.8300	 7.7640
 3.8330	 7.7380
 3.8350	 7.8070
 3.8380	 8.0560
 3.8410	 8.0870
 3.8440	 7.9390
 3.8470	 7.8540
 3.8500	 7.8120
 3.8520	 7.8680
 3.8550	 7.8620
 3.8580	 7.9070
 3.8610	 7.9830
 3.8640	 7.9470
 3.8670	 7.9570
 3.8700	 7.9770
 3.8730	 7.9760
 3.8750	 7.9650
 3.8780	 7.9810
 3.8810	 7.9900
 3.8840	 8.0610
 3.8870	 8.0340
 3.8900	 7.9990
 3.8930	 7.9950
 3.8960	 8.0620
 3.8990	 8.1260
 3.9020	 8.1660
 3.9050	 8.0980
 3.9080	 8.0670
 3.9110	 7.9960
 3.9140	 7.9540
 3.9160	 8.0280
 3.9190	 8.1090
 3.9220	 8.0610
 3.9250	 8.0400
 3.9280	 7.9650
 3.9310	 7.9810
 3.9340	 8.0350
 3.9370	 8.0900
 3.9400	 8.0580
 3.9430	 8.0440
 3.9460	 8.0860
 3.9490	 8.1490
 3.9520	 8.1320
 3.9550	 8.1720
 3.9580	 8.1510
 3.9610	 8.1320
 3.9640	 8.0710
 3.9670	 8.0770
 3.9700	 8.1010
 3.9730	 8.1250
 3.9770	 8.1400
 3.9800	 8.1260
 3.9830	 8.0710
 3.9860	 8.0320
 3.9890	 7.9940
 3.9920	 8.0430
 3.9950	 8.1330
 3.9980	 8.1490
 4.0010	 8.1340
 4.0040	 8.1420
 4.0070	 8.1220
 4.0100	 8.1590
 4.0130	 8.1110
 4.0170	 8.0710
 4.0200	 8.0870
 4.0230	 8.1260
 4.0260	 8.0830
 4.0290	 8.1450
 4.0320	 8.2370
 4.0350	 8.2540
 4.0380	 8.2160
 4.0420	 8.1850
 4.0450	 8.1470
 4.0480	 8.1330
 4.0510	 8.0870
 4.0540	 8.1460
 4.0570	 8.2380
 4.0610	 8.2400
 4.0640	 8.2300
 4.0670	 8.2560
 4.0700	 8.2130
 4.0730	 8.2270
 4.0770	 8.3320
 4.0800	 8.3920
 4.0830	 8.2850
 4.0860	 8.1750
 4.0890	 8.1510
 4.0930	 8.2850
 4.0960	 8.3340
 4.0990	 8.3360
 4.1020	 8.2890
 4.1060	 8.2110
 4.1090	 8.1740
 4.1120	 8.2220
 4.1150	 8.2640
 4.1190	 8.3340
 4.1220	 8.3260
 4.1250	 8.3000
 4.1280	 8.2850
 4.1320	 8.2560
 4.1350	 8.2440
 4.1380	 8.2520
 4.1420	 8.2140
 4.1450	 8.3340
 4.1480	 8.3980
 4.1520	 8.3140
 4.1550	 8.3010
 4.1580	 8.3540
 4.1620	 8.3420
 4.1650	 8.3600
 4.1680	 8.3410
 4.1720	 8.3280
 4.1750	 8.3000
 4.1780	 8.3340
 4.1820	 8.3170
 4.1850	 8.2590
 4.1890	 8.2540
 4.1920	 8.2840
 4.1950	 8.2490
 4.1990	 8.2790
 4.2020	 8.1300
 4.2060	 8.1660
 4.2090	 8.2470
 4.2120	 8.0900
 4.2160	 7.9690
 4.2190	 7.8770
 4.2230	 7.5340
 4.2260	 7.8040
 4.2300	 8.2520
 4.2330	 8.1070
 4.2360	 8.2240
 4.2400	 8.1530
 4.2430	 7.9510
 4.2470	 7.9230
 4.2500	 7.9270
 4.2540	 8.0550
 4.2570	 7.9590
 4.2610	 7.9910
 4.2640	 8.1290
 4.2680	 7.9570
 4.2710	 7.7570
 4.2750	 7.7040
 4.2780	 7.7580
 4.2820	 7.9130
 4.2850	 7.9290
 4.2890	 7.9310
 4.2930	 7.9400
 4.2960	 8.0050
 4.3000	 8.0010
 4.3030	 7.9710
 4.3070	 8.0380
 4.3100	 8.0360
 4.3140	 7.9210
 4.3180	 7.9770
 4.3210	 8.0240
 4.3250	 8.0170
 4.3280	 8.0560
 4.3320	 8.1270
 4.3360	 8.0140
 4.3390	 8.0340
 4.3430	 8.1350
 4.3470	 8.1380
 4.3500	 8.0650
 4.3540	 8.0420
 4.3570	 8.0760
 4.3610	 8.0990
 4.3650	 8.0250
 4.3680	 8.0070
 4.3720	 8.0550
 4.3760	 8.0750
 4.3800	 8.0880
 4.3830	 8.0630
 4.3870	 8.0340
 4.3910	 8.0840
 4.3940	 8.0360
 4.3980	 7.9700
 4.4020	 7.9460
 4.4060	 7.9640
 4.4090	 7.9380
 4.4130	 7.9670
 4.4170	 7.9560
 4.4210	 7.9400
 4.4240	 7.9770
 4.4280	 8.0250
 4.4320	 8.0170
 4.4360	 7.9500
 4.4400	 7.9170
 4.4430	 7.9200
 4.4470	 7.9600
 4.4510	 7.9250
 4.4550	 7.8380
 4.4590	 7.8220
 4.4620	 7.8180
 4.4660	 7.8570
 4.4700	 7.8860
 4.4740	 7.8900
 4.4780	 7.8730
 4.4820	 7.8630
 4.4860	 7.8480
 4.4900	 7.8800
 4.4930	 7.8570
 4.4970	 7.8620
 4.5010	 7.8830
 4.5050	 7.7480
 4.5090	 7.7110
 4.5130	 7.7640
 4.5170	 7.7760
 4.5210	 7.8020
 4.5250	 7.7790
 4.5290	 7.7460
 4.5330	 7.6760
 4.5370	 7.6410
 4.5410	 7.6220
 4.5450	 7.6260
 4.5490	 7.6470
 4.5530	 7.6790
 4.5570	 7.7350
 4.5610	 7.7780
 4.5650	 7.7310
 4.5690	 7.7470
 4.5730	 7.7410
 4.5770	 7.6370
 4.5810	 7.6370
 4.5850	 7.6900
 4.5890	 7.6980
 4.5930	 7.6170
 4.5970	 7.5130
 4.6010	 7.4970
 4.6050	 7.6080
 4.6090	 7.5850
 4.6130	 7.4630
 4.6170	 7.6000
 4.6220	 7.5780
 4.6260	 7.4040
 4.6300	 7.4230
 4.6340	 7.4760
 4.6380	 7.4650
 4.6420	 7.4500
 4.6460	 7.3990
 4.6510	 7.3840
 4.6550	 7.4500
 4.6590	 7.4820
 4.6630	 7.4290
 4.6670	 7.4470
 4.6720	 7.5090
 4.6760	 7.5350
 4.6800	 7.5490
 4.6840	 7.4370
 4.6880	 7.2350
 4.6930	 7.3300
 4.6970	 7.4480
 4.7010	 7.4450
 4.7050	 7.4530
 4.7100	 7.4190
 4.7140	 7.3840
 4.7180	 7.4030
 4.7230	 7.3890
 4.7270	 7.3980
 4.7310	 7.4340
 4.7360	 7.4260
 4.7400	 7.3430
 4.7440	 7.3840
 4.7490	 7.4410
 4.7530	 7.4280
 4.7570	 7.3990
 4.7620	 7.4190
 4.7660	 7.4170
 4.7700	 7.4660
 4.7750	 7.5190
 4.7790	 7.4000
 4.7840	 7.3860
 4.7880	 7.6230
 4.7920	 7.6020
 4.7970	 7.3950
 4.8010	 7.3950
 4.8060	 7.4320
 4.8100	 7.4910
 4.8150	 7.4620
 4.8190	 7.4180
 4.8240	 7.4260
 4.8280	 7.4500
 4.8330	 7.4360
 4.8370	 7.4590
 4.8420	 7.4340
 4.8460	 7.4230
 4.8510	 7.4510
 4.8550	 7.4670
 4.8600	 7.4380
 4.8640	 7.4560
 4.8690	 7.4660
 4.8730	 7.4410
 4.8780	 7.4140
 4.8830	 7.4090
 4.8870	 7.4520
 4.8920	 7.4600
 4.8960	 7.4810
 4.9010	 7.5260
 4.9060	 7.4730
 4.9100	 7.4500
 4.9150	 7.4220
 4.9200	 7.3950
 4.9240	 7.4210
 4.9290	 7.4830
 4.9340	 7.5060
 4.9380	 7.4840
 4.9430	 7.4420
 4.9480	 7.4180
 4.9530	 7.5020
 4.9570	 7.5690
 4.9620	 7.5030
 4.9670	 7.4710
 4.9720	 7.5060
 4.9760	 7.5470
 4.9810	 7.5080
 4.9860	 7.5280
 4.9910	 7.5590
 4.9960	 7.5750
 5.0000	 7.5950
 5.0050	 7.5680
 5.0100	 7.5440
 5.0150	 7.5460
 5.0200	 7.5210
 5.0250	 7.5380
 5.0290	 7.5970
 5.0340	 7.5990
 5.0390	 7.5710
 5.0440	 7.5990
 5.0490	 7.5710
 5.0540	 7.5850
 5.0590	 7.6390
 5.0640	 7.6390
 5.0690	 7.5970
 5.0740	 7.5650
 5.0790	 7.5380
 5.0840	 7.5450
 5.0890	 7.5780
 5.0940	 7.5810
 5.0990	 7.5590
 5.1040	 7.5250
 5.1090	 7.5180
 5.1140	 7.5480
 5.1190	 7.5210
 5.1240	 7.5420
 5.1290	 7.5780
 5.1340	 7.6200
 5.1390	 7.6300
 5.1440	 7.6610
 5.1490	 7.6590
 5.1540	 7.6220
 5.1600	 7.5600
 5.1650	 7.5360
 5.1700	 7.5260
 5.1750	 7.5410
 5.1800	 7.5700
 5.1850	 7.5480
 5.1910	 7.5350
 5.1960	 7.5280
 5.2010	 7.5000
 5.2060	 7.5200
 5.2110	 7.4960
 5.2170	 7.4730
 5.2220	 7.4650
 5.2270	 7.4820
 5.2320	 7.5060
 5.2380	 7.5610
 5.2430	 7.5590
 5.2480	 7.4920
 5.2540	 7.4600
 5.2590	 7.4660
 5.2640	 7.4140
 5.2700	 7.3960
 5.2750	 7.3780
 5.2800	 7.4060
 5.2860	 7.4070
 5.2910	 7.4110
 5.2970	 7.3440
 5.3020	 7.3070
 5.3070	 7.3770
 5.3130	 7.4090
 5.3180	 7.3840
 5.3240	 7.4490
 5.3290	 7.4350
 5.3350	 7.4580
 5.3400	 7.4290
 5.3460	 7.3460
 5.3510	 7.3020
 5.3570	 7.3370
 5.3620	 7.3110
 5.3680	 7.2770
 5.3730	 7.2270
 5.3790	 7.2230
 5.3850	 7.2300
 5.3900	 7.2250
 5.3960	 7.2010
 5.4010	 7.2050
 5.4070	 7.1660
 5.4130	 7.1440
 5.4180	 7.1290
 5.4240	 7.1540
 5.4300	 7.0760
 5.4350	 7.0630
 5.4410	 7.0610
 5.4470	 7.0440
 5.4530	 7.0380
 5.4580	 7.1120
 5.4640	 7.0450
 5.4700	 6.9770
 5.4760	 6.9150
 5.4810	 6.8680
 5.4870	 6.8380
 5.4930	 6.7830
 5.4990	 6.6740
 5.5050	 6.6700
 5.5110	 6.7540
 5.5160	 6.7910
 5.5220	 6.6670
 5.5280	 6.6010
 5.5340	 6.5780
 5.5400	 6.5800
 5.5460	 6.5440
 5.5520	 6.5200
 5.5580	 6.4610
 5.5640	 6.3580
 5.5700	 6.2970
 5.5760	 6.3170
 5.5820	 6.2230
 5.5880	 6.1480
 5.5940	 6.1100
 5.6000	 6.0950
 5.6060	 5.9600
 5.6120	 5.8600
 5.6180	 5.7510
 5.6240	 5.6970
 5.6300	 5.6480
 5.6360	 5.5410
 5.6420	 5.4070
 5.6490	 5.2460
 5.6550	 5.0890
 5.6610	 5.0420
 5.6670	 4.8940
 5.6730	 4.6900
 5.6800	 4.4680
 5.6860	 4.4220
 5.6920	 4.3140
 5.6980	 4.1840
 5.7040	 4.0060
 5.7110	 3.8510
 5.7170	 3.7200
 5.7230	 3.6280
 5.7300	 3.4730
 5.7360	 3.3520
 5.7420	 3.2060
 5.7490	 3.1270
 5.7550	 3.0930
 5.7620	 3.1100
 5.7680	 3.1890
 5.7740	 3.3490
 5.7810	 3.4210
 5.7870	 3.5250
 5.7940	 3.7050
 5.8000	 3.8760
 5.8070	 3.9190
 5.8130	 4.0090
 5.8200	 4.0700
 5.8260	 4.1660
 5.8330	 4.2390
 5.8390	 4.3870
 5.8460	 4.5090
 5.8530	 4.6400
 5.8590	 4.7100
 5.8660	 4.7690
 5.8720	 4.7780
 5.8790	 4.9140
 5.8860	 4.9450
 5.8920	 5.0130
 5.8990	 5.0140
 5.9060	 4.9950
 5.9130	 4.8940
 5.9190	 4.9090
 5.9260	 4.8560
 5.9330	 4.8650
 5.9400	 4.8090
 5.9470	 4.7450
 5.9530	 4.5930
 5.9600	 4.5600
 5.9670	 4.4980
 5.9740	 4.4240
 5.9810	 4.3120
 5.9880	 4.2710
 5.9950	 4.1720
 6.0020	 4.1240
 6.0090	 3.9540
 6.0160	 3.9110
 6.0230	 3.8840
 6.0300	 3.9260
 6.0370	 3.9460
 6.0440	 4.0510
 6.0510	 4.0700
 6.0580	 4.1320
 6.0650	 4.0520
 6.0720	 4.0830
 6.0790	 4.0600
 6.0860	 4.0520
 6.0930	 4.0640
 6.1000	 4.1810
 6.1080	 4.1970
 6.1150	 4.1340
 6.1220	 4.0340
 6.1290	 4.0920
 6.1370	 4.1130
 6.1440	 4.1730
 6.1510	 4.1040
 6.1580	 4.1080
 6.1660	 4.1130
 6.1730	 4.1410
 6.1800	 4.0020
 6.1880	 3.9800
 6.1950	 3.9740
 6.2030	 4.0440
 6.2100	 4.0760
 6.2170	 4.1260
 6.2250	 4.0980
 6.2320	 4.2300
 6.2400	 4.2840
 6.2470	 4.3670
 6.2550	 4.3400
 6.2630	 4.4030
 6.2700	 4.3740
 6.2780	 4.4320
 6.2850	 4.4710
 6.2930	 4.5030
 6.3010	 4.5240
 6.3080	 4.7480
 6.3160	 4.7970
 6.3240	 4.9080
 6.3310	 5.0350
 6.3390	 5.0810
 6.3470	 5.0080
 6.3550	 5.0150
 6.3620	 4.9660
 6.3700	 5.0540
 6.3780	 5.1740
 6.3860	 5.2450
 6.3940	 5.2180
 6.4020	 5.2740
 6.4100	 5.2840
 6.4180	 5.2860
 6.4260	 5.2320
 6.4330	 5.3430
 6.4410	 5.3890
 6.4490	 5.3840
 6.4580	 5.3730
 6.4660	 5.3960
 6.4740	 5.3480
 6.4820	 5.3510
 6.4900	 5.2340
 6.4980	 5.2860
 6.5060	 5.2510
 6.5140	 5.2930
 6.5230	 5.2440
 6.5310	 5.1680
 6.5390	 5.0020
 6.5470	 4.9120
 6.5550	 4.7030
 6.5640	 4.5630
 6.5720	 4.4240
 6.5800	 4.3190
 6.5890	 4.2120
 6.5970	 4.3260
 6.6060	 4.3490
 6.6140	 4.4380
 6.6220	 4.4330
 6.6310	 4.4690
 6.6390	 4.5340
 6.6480	 4.6730
 6.6560	 4.6330
 6.6650	 4.6580
 6.6740	 4.6770
 6.6820	 4.7520
 6.6910	 4.7870
 6.6990	 4.8770
 6.7080	 4.8290
 6.7170	 4.8780
 6.7260	 4.8370
 6.7340	 4.7900
 6.7430	 4.6760
 6.7520	 4.6770
 6.7610	 4.5780
 6.7690	 4.5080
 6.7780	 4.4230
 6.7870	 4.3620
 6.7960	 4.1770
 6.8050	 4.0520
 6.8140	 3.8660
 6.8230	 3.9230
 6.8320	 3.9770
 6.8410	 4.0230
 6.8500	 3.9450
 6.8590	 4.0570
 6.8680	 4.0730
 6.8770	 4.1290
 6.8860	 4.0930
 6.8950	 4.1440
 6.9050	 4.1300
 6.9140	 4.1790
 6.9230	 4.1720
 6.9320	 4.2530
 6.9420	 4.2430
 6.9510	 4.2630
 6.9600	 4.1700
 6.9700	 4.2310
 6.9790	 4.1690
 6.9880	 4.1820
 6.9980	 4.1600
 7.0070	 4.2360
 7.0170	 4.1830
 7.0260	 4.2580
 7.0360	 4.1740
 7.0450	 4.2130
 7.0550	 4.2730
 7.0650	 4.4350
 7.0740	 4.3860
 7.0840	 4.4020
 7.0940	 4.3900
 7.1030	 4.4500
 7.1130	 4.3720
 7.1230	 4.3330
 7.1330	 4.2250
 7.1420	 4.1880
 7.1520	 4.1360
 7.1620	 4.3000
 7.1720	 4.1360
 7.1820	 3.9870
 7.1920	 3.9120
 7.2020	 3.9380
 7.2120	 3.8380
 7.2220	 3.8180
 7.2320	 3.6520
 7.2420	 3.5750
 7.2520	 3.4920
 7.2620	 3.5830
 7.2730	 3.5300
 7.2830	 3.6150
 7.2930	 3.5800
 7.3030	 3.5500
 7.3140	 3.4920
 7.3240	 3.7190
 7.3340	 3.7180
 7.3450	 3.7560
 7.3550	 3.8650
 7.3660	 4.0250
 7.3760	 4.0240
 7.3870	 4.1800
 7.3970	 4.1500
 7.4080	 4.2030
 7.4180	 4.1070
 7.4290	 4.1710
 7.4400	 4.1530
 7.4500	 4.1710
 7.4610	 4.0810
 7.4720	 4.1100
 7.4830	 4.0080
 7.4930	 3.9430
 7.5040	 3.8380
 7.5150	 3.9190
 7.5260	 3.8830
 7.5370	 3.8610
 7.5480	 3.7780
 7.5590	 3.8460
 7.5700	 3.7890
 7.5810	 3.8760
 7.5920	 3.7760
 7.6030	 3.7540
 7.6140	 3.6770
 7.6260	 3.6710
 7.6370	 3.7390
 7.6480	 3.9180
 7.6590	 3.8150
 7.6710	 3.9080
 7.6820	 3.9080
 7.6930	 3.9410
 7.7050	 3.8530
 7.7160	 3.8580
 7.7280	 3.8200
 7.7390	 3.9180
 7.7510	 3.7850
 7.7630	 3.7590
 7.7740	 3.6810
 7.7860	 3.6310
 7.7980	 3.5130
 7.8090	 3.6480
 7.8210	 3.6210
 7.8330	 3.6150
 7.8450	 3.5410
 7.8570	 3.5600
 7.8690	 3.4260
 7.8810	 3.4880
 7.8930	 3.4220
 7.9050	 3.4670
 7.9170	 3.4010
 7.9290	 3.4940
 7.9410	 3.3510
 7.9530	 3.4330
 7.9650	 3.3770
 7.9780	 3.4280
 7.9900	 3.3300
 8.0020	 3.4250
 8.0150	 3.3700
 8.0270	 3.4970
 8.0390	 3.5170
 8.0520	 3.5630
 8.0640	 3.6030
 8.0770	 3.9110
 8.0900	 3.8330
 8.1020	 3.8550
 8.1150	 3.8040
 8.1280	 3.9760
 8.1400	 3.8910
 8.1530	 3.9630
 8.1660	 3.9330
 8.1790	 4.0880
 8.1920	 3.9780
 8.2050	 4.1320
 8.2180	 4.0330
 8.2310	 4.1580
 8.2440	 4.1210
 8.2570	 4.3440
 8.2700	 4.3630
 8.2830	 4.6260
 8.2970	 4.7220
 8.3100	 4.8730
 8.3230	 4.7290
 8.3370	 4.7360
 8.3500	 4.5490
 8.3640	 4.7060
 8.3770	 4.6580
 8.3910	 4.5850
 8.4040	 4.3390
 8.4180	 4.4240
 8.4320	 4.3020
 8.4450	 4.3470
 8.4590	 4.2900
 8.4730	 4.4830
 8.4870	 4.5240
 8.5010	 4.6960
 8.5150	 4.5590
 8.5290	 4.6700
 8.5430	 4.6690
 8.5570	 4.7280
 8.5710	 4.4660
 8.5850	 4.5320
 8.5990	 4.5250
 8.6140	 4.5880
 8.6280	 4.5090
 8.6420	 4.8350
 8.6570	 4.7060
 8.6710	 4.6870
 8.6860	 4.6980
 8.7000	 4.8980
 8.7150	 4.7940
 8.7300	 4.8870
 8.7440	 4.7540
 8.7590	 4.8270
 8.7740	 4.7340
 8.7890	 4.8600
 8.8040	 4.5760
 8.8190	 4.6140
 8.8340	 4.4400
 8.8490	 4.4920
 8.8640	 4.3790
 8.8790	 4.3950
 8.8940	 4.1540
 8.9100	 4.2540
 8.9250	 4.0910
 8.9400	 4.1320
 8.9560	 3.9660
 8.9710	 4.1350
 8.9870	 4.0590
 9.0020	 4.0920
 9.0180	 3.8000
 9.0340	 3.9860
 9.0500	 4.0220
 9.0650	 4.1230
 9.0810	 3.9970
 9.0970	 4.2430
 9.1130	 4.1100
 9.1290	 4.1300
 9.1450	 4.0290
 9.1610	 4.2790
 9.1780	 4.0600
 9.1940	 4.0380
 9.2100	 3.8260
 9.2270	 3.9560
 9.2430	 3.8480
 9.2600	 4.0190
 9.2760	 3.9640
 9.2930	 4.0440
 9.3090	 3.8100
 9.3260	 3.8470
 9.3430	 3.6440
 9.3600	 3.7990
 9.3770	 3.7480
 9.3940	 3.8700
 9.4110	 3.7890
 9.4280	 3.9170
 9.4450	 3.7300
 9.4620	 3.8560
 9.4800	 3.8130
 9.4970	 3.9590
 9.5140	 3.8120
 9.5320	 3.9340
 9.5500	 3.7790
 9.5670	 3.9510
 9.5850	 3.9330
 9.6030	 4.0910
 9.6200	 3.8440
 9.6380	 3.9900
 9.6560	 3.9730
 9.6740	 4.2090
 9.6920	 4.2210
 9.7100	 4.4300
 9.7290	 4.3120
 9.7470	 4.4020
 9.7650	 4.3080
 9.7840	 4.4390
 9.8020	 4.2920
 9.8210	 4.4900
 9.8390	 4.4840
 9.8580	 4.6950
 9.8770	 4.5350
 9.8960	 4.6720
 9.9150	 4.6390
 9.9340	 4.8780
 9.9530	 4.7190
 9.9720	 4.8730
 9.9910	 4.8280
10.0100	 4.9310
10.0300	 4.8470
10.0490	 4.9860
10.0690	 4.6930
10.0880	 4.8610
10.1080	 4.8950
10.1280	 5.1010
10.1480	 5.1130
10.1670	 5.4510
10.1870	 5.2710
10.2070	 5.4310
10.2280	 5.4600
10.2480	 5.6480
10.2680	 5.5990
10.2890	 5.7490
10.3090	 5.6000
10.3300	 5.7930
10.3500	 5.8160
10.3710	 6.0740
10.3920	 6.1010
10.4120	 6.3350
10.4330	 6.2780
10.4540	 6.4790
10.4760	 6.3060
10.4970	 6.3860
10.5180	 6.3010
10.5390	 6.4800
10.5610	 6.4310
10.5820	 6.5890
10.6040	 6.3690
10.6260	 6.4220
10.6480	 6.4480
10.6700	 6.7070
10.6920	 6.5320
10.7140	 6.5720
10.7360	 6.3200
10.7580	 6.4590
10.7800	 6.4000
10.8030	 6.3970
10.8250	 6.3260
10.8480	 6.6160
10.8710	 6.2650
10.8940	 6.1270
10.9170	 6.0870
10.9400	 6.3320
10.9630	 6.1980
10.9860	 6.3160
11.0090	 6.1150
11.0330	 6.2010
11.0560	 6.0000
11.0800	 6.0350
11.1040	 5.9290
11.1270	 6.0780
11.1510	 5.7760
11.1750	 5.8650
11.2000	 5.7370
11.2240	 5.9780
11.2480	 5.6330
11.2730	 5.6780
11.2970	 5.7930
11.3220	 6.3600
11.3470	 6.2950
11.3720	 6.2100
11.3970	 5.8240
11.4220	 5.9530
11.4470	 5.7980
11.4720	 6.0450
11.4980	 5.9870
11.5230	 6.2470
11.5490	 6.0110
11.5750	 6.1260
11.6000	 5.8280
11.6260	 5.8780
11.6530	 5.6470
11.6790	 5.8350
11.7050	 5.5690
11.7320	 5.6020
11.7580	 5.3120
11.7850	 5.4830
11.8120	 5.4120
11.8390	 5.5450
11.8660	 5.4170
11.8930	 5.6720
11.9200	 5.4650
11.9480	 5.6620
11.9760	 5.5690
12.0030	 5.6720
12.0310	 5.3970
12.0590	 5.5850
12.0870	 5.4960
12.1150	 5.7110
12.1440	 5.4020
12.1720	 5.6460
12.2010	 5.5460
12.2300	 5.6830
12.2590	 5.4560
12.2880	 5.6890
12.3170	 5.3130
12.3460	 5.4380
12.3760	 5.3580
12.4050	 5.6320
12.4350	 5.5250
12.4650	 5.7770
12.4950	 5.3980
12.5250	 5.5370
12.5550	 5.2790
12.5860	 5.3340
12.6170	 5.2350
12.6470	 5.5960
12.6780	 5.4600
12.7090	 5.4760
12.7410	 5.0950
12.7720	 5.2700
12.8030	 4.8680
12.8350	 4.9430
12.8670	 4.8470
12.8990	 5.1710
12.9310	 4.9900
12.9640	 5.2380
12.9960	 4.9830
13.0290	 5.3100
13.0610	 4.9590
13.0940	 5.1230
13.1280	 4.9590
13.1610	 5.0880
13.1940	 4.6550
13.2280	 4.8000
13.2620	 4.6110
13.2960	 4.9150
13.3300	 4.4590
13.3640	 4.5800
13.3990	 4.3280
13.4340	 4.6010
13.4690	 4.4120
13.5040	 4.7260
13.5390	 4.4820
13.5740	 4.6480
13.6100	 4.3770
13.6460	 4.5140
13.6820	 4.1680
13.7180	 4.5550
13.7540	 4.5550
13.7910	 4.8960
13.8280	 4.3260
13.8650	 4.6540
13.9020	 4.3390
13.9390	 4.5640
13.9770	 4.2500
14.0150	 4.5000
14.0530	 4.1260
14.0910	 4.5940
14.1290	 4.4950
14.1680	 4.7950
14.2070	 4.3190
14.2460	 4.5890
14.2850	 4.0320
14.3240	 4.2970
14.3640	 3.8230
14.4040	 4.3690
14.4440	 3.7770
14.4840	 4.0590
14.5250	 3.8190
14.5660	 4.1700
14.6070	 3.3940
14.6480	 4.0200
14.6900	 3.6080
14.7310	 3.9800
14.7730	 3.6460
14.8150	 4.3310
14.8580	 3.8660
14.9010	 4.3680
14.9440	 3.0810
14.9870	 3.5680
15.0300	 3.3610
15.0740	 4.2170
15.1180	 3.6190
15.1620	 3.9670
15.2060	 3.1690
15.2510	 3.9550
15.2960	 3.5100
15.3410	 4.2710
15.3870	 3.3100
