Name: Adenostoma fasciculatum 3
Type: vegetation
Class: Shrub
Genus: Adenostoma
Species: fasciculatum
Sample No.: VH116
Owner: UCSB
Wavelength Range: VSWIR
Origin: 34.5084; -119.7686; WGS84
Collection Date: 6/3/2013
Description: Samples were collected as part of the HyspIRI Airborne Campaign. 48 individual plants were sampled in three times in 2013 - spring  summer  and fall. The name of the sample includes a 1  2  or 3 which references a different individual of the species. Samples were taken to JPL and processed within 48 hours of collection. The same leaves were processed in the Nicolet and then measured using the ASD.
Measurement: Bidirectional reflectance
First Column: X
Second Column: Y
X Units: Wavelength (micrometers)
Y Units: Reflectance (percentage)
First X Value: 0.35
Last X Value: 2.5
Number of X Values: 2151
Additional Information: vegetation.shrub.adenostoma.fasciculatum.vswir.vh116.ucsb.asd.ancillary.txt

 0.3500	 2.2730
 0.3510	 2.0500
 0.3520	 2.0020
 0.3530	 2.0430
 0.3540	 2.0350
 0.3550	 2.0170
 0.3560	 1.9580
 0.3570	 1.8740
 0.3580	 1.8210
 0.3590	 1.9450
 0.3600	 2.0900
 0.3610	 2.1490
 0.3620	 2.1180
 0.3630	 2.0540
 0.3640	 1.9940
 0.3650	 1.9690
 0.3660	 2.0420
 0.3670	 2.0610
 0.3680	 2.0420
 0.3690	 2.1050
 0.3700	 2.0780
 0.3710	 2.0150
 0.3720	 1.9840
 0.3730	 2.0100
 0.3740	 2.0530
 0.3750	 2.0270
 0.3760	 1.8970
 0.3770	 1.8770
 0.3780	 1.9230
 0.3790	 1.9840
 0.3800	 2.0180
 0.3810	 2.0260
 0.3820	 2.0530
 0.3830	 2.1010
 0.3840	 2.0720
 0.3850	 2.0120
 0.3860	 1.9940
 0.3870	 2.0620
 0.3880	 2.0330
 0.3890	 2.0160
 0.3900	 2.0370
 0.3910	 2.0170
 0.3920	 1.9930
 0.3930	 2.0130
 0.3940	 2.0760
 0.3950	 2.0720
 0.3960	 2.0580
 0.3970	 2.0570
 0.3980	 2.0690
 0.3990	 2.0880
 0.4000	 2.0960
 0.4010	 2.0980
 0.4020	 2.1330
 0.4030	 2.1530
 0.4040	 2.1480
 0.4050	 2.1330
 0.4060	 2.1630
 0.4070	 2.1760
 0.4080	 2.1820
 0.4090	 2.2300
 0.4100	 2.2360
 0.4110	 2.2280
 0.4120	 2.2380
 0.4130	 2.2680
 0.4140	 2.2910
 0.4150	 2.3100
 0.4160	 2.3380
 0.4170	 2.3870
 0.4180	 2.4210
 0.4190	 2.4310
 0.4200	 2.4400
 0.4210	 2.4660
 0.4220	 2.4940
 0.4230	 2.5170
 0.4240	 2.5590
 0.4250	 2.5780
 0.4260	 2.5810
 0.4270	 2.5980
 0.4280	 2.6270
 0.4290	 2.6560
 0.4300	 2.6760
 0.4310	 2.6760
 0.4320	 2.7080
 0.4330	 2.7470
 0.4340	 2.7610
 0.4350	 2.7700
 0.4360	 2.7830
 0.4370	 2.8010
 0.4380	 2.8180
 0.4390	 2.8480
 0.4400	 2.8740
 0.4410	 2.8840
 0.4420	 2.9050
 0.4430	 2.9290
 0.4440	 2.9450
 0.4450	 2.9480
 0.4460	 2.9750
 0.4470	 3.0070
 0.4480	 3.0320
 0.4490	 3.0510
 0.4500	 3.0740
 0.4510	 3.0950
 0.4520	 3.1100
 0.4530	 3.1430
 0.4540	 3.1690
 0.4550	 3.1790
 0.4560	 3.1780
 0.4570	 3.2060
 0.4580	 3.2360
 0.4590	 3.2490
 0.4600	 3.2510
 0.4610	 3.2640
 0.4620	 3.2840
 0.4630	 3.2980
 0.4640	 3.3060
 0.4650	 3.3160
 0.4660	 3.3310
 0.4670	 3.3470
 0.4680	 3.3650
 0.4690	 3.3750
 0.4700	 3.3760
 0.4710	 3.3960
 0.4720	 3.4100
 0.4730	 3.4160
 0.4740	 3.4210
 0.4750	 3.4280
 0.4760	 3.4420
 0.4770	 3.4620
 0.4780	 3.4750
 0.4790	 3.4830
 0.4800	 3.4970
 0.4810	 3.5230
 0.4820	 3.5270
 0.4830	 3.5240
 0.4840	 3.5280
 0.4850	 3.5490
 0.4860	 3.5720
 0.4870	 3.5900
 0.4880	 3.6050
 0.4890	 3.6240
 0.4900	 3.6420
 0.4910	 3.6600
 0.4920	 3.6840
 0.4930	 3.7110
 0.4940	 3.7430
 0.4950	 3.7790
 0.4960	 3.8160
 0.4970	 3.8530
 0.4980	 3.8930
 0.4990	 3.9400
 0.5000	 3.9910
 0.5010	 4.0400
 0.5020	 4.0940
 0.5030	 4.1640
 0.5040	 4.2330
 0.5050	 4.3050
 0.5060	 4.3870
 0.5070	 4.4770
 0.5080	 4.5680
 0.5090	 4.6620
 0.5100	 4.7680
 0.5110	 4.8880
 0.5120	 5.0180
 0.5130	 5.1540
 0.5140	 5.3020
 0.5150	 5.4560
 0.5160	 5.6130
 0.5170	 5.7730
 0.5180	 5.9520
 0.5190	 6.1410
 0.5200	 6.3300
 0.5210	 6.5130
 0.5220	 6.7030
 0.5230	 6.8950
 0.5240	 7.0810
 0.5250	 7.2590
 0.5260	 7.4320
 0.5270	 7.6010
 0.5280	 7.7620
 0.5290	 7.9120
 0.5300	 8.0560
 0.5310	 8.1940
 0.5320	 8.3180
 0.5330	 8.4320
 0.5340	 8.5400
 0.5350	 8.6450
 0.5360	 8.7390
 0.5370	 8.8230
 0.5380	 8.9010
 0.5390	 8.9730
 0.5400	 9.0520
 0.5410	 9.1350
 0.5420	 9.2140
 0.5430	 9.2810
 0.5440	 9.3510
 0.5450	 9.4180
 0.5460	 9.4740
 0.5470	 9.5190
 0.5480	 9.5600
 0.5490	 9.6020
 0.5500	 9.6460
 0.5510	 9.6840
 0.5520	 9.7110
 0.5530	 9.7270
 0.5540	 9.7320
 0.5550	 9.7280
 0.5560	 9.7130
 0.5570	 9.6840
 0.5580	 9.6420
 0.5590	 9.5930
 0.5600	 9.5370
 0.5610	 9.4800
 0.5620	 9.4110
 0.5630	 9.3340
 0.5640	 9.2570
 0.5650	 9.1750
 0.5660	 9.0860
 0.5670	 8.9890
 0.5680	 8.8870
 0.5690	 8.7830
 0.5700	 8.6750
 0.5710	 8.5640
 0.5720	 8.4540
 0.5730	 8.3500
 0.5740	 8.2530
 0.5750	 8.1570
 0.5760	 8.0680
 0.5770	 7.9830
 0.5780	 7.9000
 0.5790	 7.8220
 0.5800	 7.7510
 0.5810	 7.6880
 0.5820	 7.6320
 0.5830	 7.5830
 0.5840	 7.5350
 0.5850	 7.4870
 0.5860	 7.4430
 0.5870	 7.4010
 0.5880	 7.3590
 0.5890	 7.3200
 0.5900	 7.2910
 0.5910	 7.2690
 0.5920	 7.2500
 0.5930	 7.2310
 0.5940	 7.2150
 0.5950	 7.2020
 0.5960	 7.1910
 0.5970	 7.1780
 0.5980	 7.1640
 0.5990	 7.1480
 0.6000	 7.1280
 0.6010	 7.1060
 0.6020	 7.0810
 0.6030	 7.0520
 0.6040	 7.0160
 0.6050	 6.9730
 0.6060	 6.9270
 0.6070	 6.8810
 0.6080	 6.8220
 0.6090	 6.7660
 0.6100	 6.7160
 0.6110	 6.6710
 0.6120	 6.6090
 0.6130	 6.5400
 0.6140	 6.4750
 0.6150	 6.4140
 0.6160	 6.3590
 0.6170	 6.3090
 0.6180	 6.2620
 0.6190	 6.2220
 0.6200	 6.1860
 0.6210	 6.1540
 0.6220	 6.1280
 0.6230	 6.1050
 0.6240	 6.0870
 0.6250	 6.0760
 0.6260	 6.0670
 0.6270	 6.0580
 0.6280	 6.0530
 0.6290	 6.0540
 0.6300	 6.0520
 0.6310	 6.0500
 0.6320	 6.0470
 0.6330	 6.0420
 0.6340	 6.0300
 0.6350	 6.0110
 0.6360	 5.9860
 0.6370	 5.9550
 0.6380	 5.9180
 0.6390	 5.8760
 0.6400	 5.8290
 0.6410	 5.7820
 0.6420	 5.7280
 0.6430	 5.6690
 0.6440	 5.6100
 0.6450	 5.5460
 0.6460	 5.4790
 0.6470	 5.4150
 0.6480	 5.3590
 0.6490	 5.3060
 0.6500	 5.2570
 0.6510	 5.2140
 0.6520	 5.1750
 0.6530	 5.1350
 0.6540	 5.0930
 0.6550	 5.0530
 0.6560	 5.0070
 0.6570	 4.9540
 0.6580	 4.8980
 0.6590	 4.8380
 0.6600	 4.7750
 0.6610	 4.7120
 0.6620	 4.6480
 0.6630	 4.5890
 0.6640	 4.5340
 0.6650	 4.4820
 0.6660	 4.4350
 0.6670	 4.3960
 0.6680	 4.3640
 0.6690	 4.3380
 0.6700	 4.3130
 0.6710	 4.2950
 0.6720	 4.2860
 0.6730	 4.2820
 0.6740	 4.2790
 0.6750	 4.2780
 0.6760	 4.2840
 0.6770	 4.2970
 0.6780	 4.3140
 0.6790	 4.3330
 0.6800	 4.3550
 0.6810	 4.3930
 0.6820	 4.4410
 0.6830	 4.4990
 0.6840	 4.5740
 0.6850	 4.6660
 0.6860	 4.7800
 0.6870	 4.9220
 0.6880	 5.0920
 0.6890	 5.2970
 0.6900	 5.5420
 0.6910	 5.8300
 0.6920	 6.1650
 0.6930	 6.5510
 0.6940	 6.9880
 0.6950	 7.4800
 0.6960	 8.0190
 0.6970	 8.6030
 0.6980	 9.2340
 0.6990	 9.9060
 0.7000	10.6170
 0.7010	11.3620
 0.7020	12.1330
 0.7030	12.9220
 0.7040	13.7260
 0.7050	14.5440
 0.7060	15.3760
 0.7070	16.2150
 0.7080	17.0590
 0.7090	17.9080
 0.7100	18.7640
 0.7110	19.6260
 0.7120	20.4950
 0.7130	21.3750
 0.7140	22.2540
 0.7150	23.1330
 0.7160	24.0170
 0.7170	24.9080
 0.7180	25.7980
 0.7190	26.6830
 0.7200	27.5640
 0.7210	28.4450
 0.7220	29.3210
 0.7230	30.1890
 0.7240	31.0400
 0.7250	31.8770
 0.7260	32.6970
 0.7270	33.4960
 0.7280	34.2740
 0.7290	35.0310
 0.7300	35.7640
 0.7310	36.4690
 0.7320	37.1530
 0.7330	37.8120
 0.7340	38.4440
 0.7350	39.0460
 0.7360	39.6240
 0.7370	40.1780
 0.7380	40.7050
 0.7390	41.2090
 0.7400	41.6890
 0.7410	42.1460
 0.7420	42.5800
 0.7430	42.9910
 0.7440	43.3810
 0.7450	43.7490
 0.7460	44.0970
 0.7470	44.4240
 0.7480	44.7320
 0.7490	45.0220
 0.7500	45.2940
 0.7510	45.5510
 0.7520	45.7900
 0.7530	46.0120
 0.7540	46.2220
 0.7550	46.4210
 0.7560	46.6070
 0.7570	46.7760
 0.7580	46.9400
 0.7590	47.0960
 0.7600	47.2390
 0.7610	47.3780
 0.7620	47.5060
 0.7630	47.6260
 0.7640	47.7410
 0.7650	47.8540
 0.7660	47.9610
 0.7670	48.0610
 0.7680	48.1610
 0.7690	48.2560
 0.7700	48.3450
 0.7710	48.4310
 0.7720	48.5140
 0.7730	48.5970
 0.7740	48.6780
 0.7750	48.7550
 0.7760	48.8320
 0.7770	48.9040
 0.7780	48.9730
 0.7790	49.0470
 0.7800	49.1150
 0.7810	49.1830
 0.7820	49.2510
 0.7830	49.3150
 0.7840	49.3750
 0.7850	49.4360
 0.7860	49.5010
 0.7870	49.5670
 0.7880	49.6270
 0.7890	49.6840
 0.7900	49.7420
 0.7910	49.8020
 0.7920	49.8580
 0.7930	49.9100
 0.7940	49.9610
 0.7950	50.0160
 0.7960	50.0720
 0.7970	50.1270
 0.7980	50.1770
 0.7990	50.2250
 0.8000	50.2750
 0.8010	50.3280
 0.8020	50.3710
 0.8030	50.4180
 0.8040	50.4660
 0.8050	50.5110
 0.8060	50.5520
 0.8070	50.5950
 0.8080	50.6390
 0.8090	50.6750
 0.8100	50.7160
 0.8110	50.7600
 0.8120	50.8020
 0.8130	50.8370
 0.8140	50.8750
 0.8150	50.9150
 0.8160	50.9530
 0.8170	50.9920
 0.8180	51.0260
 0.8190	51.0590
 0.8200	51.0950
 0.8210	51.1350
 0.8220	51.1710
 0.8230	51.2030
 0.8240	51.2320
 0.8250	51.2580
 0.8260	51.2870
 0.8270	51.3170
 0.8280	51.3430
 0.8290	51.3680
 0.8300	51.3950
 0.8310	51.4230
 0.8320	51.4480
 0.8330	51.4720
 0.8340	51.4970
 0.8350	51.5250
 0.8360	51.5530
 0.8370	51.5870
 0.8380	51.6230
 0.8390	51.6540
 0.8400	51.6870
 0.8410	51.7240
 0.8420	51.7630
 0.8430	51.8020
 0.8440	51.8380
 0.8450	51.8730
 0.8460	51.9100
 0.8470	51.9500
 0.8480	51.9830
 0.8490	52.0140
 0.8500	52.0520
 0.8510	52.0950
 0.8520	52.1340
 0.8530	52.1690
 0.8540	52.2020
 0.8550	52.2380
 0.8560	52.2730
 0.8570	52.3070
 0.8580	52.3450
 0.8590	52.3750
 0.8600	52.4080
 0.8610	52.4460
 0.8620	52.4760
 0.8630	52.5070
 0.8640	52.5370
 0.8650	52.5680
 0.8660	52.6090
 0.8670	52.6390
 0.8680	52.6650
 0.8690	52.7020
 0.8700	52.7370
 0.8710	52.7720
 0.8720	52.8030
 0.8730	52.8300
 0.8740	52.8600
 0.8750	52.8960
 0.8760	52.9330
 0.8770	52.9630
 0.8780	52.9890
 0.8790	53.0160
 0.8800	53.0440
 0.8810	53.0690
 0.8820	53.0970
 0.8830	53.1230
 0.8840	53.1460
 0.8850	53.1660
 0.8860	53.1930
 0.8870	53.2160
 0.8880	53.2260
 0.8890	53.2450
 0.8900	53.2610
 0.8910	53.2760
 0.8920	53.2980
 0.8930	53.3160
 0.8940	53.3340
 0.8950	53.3490
 0.8960	53.3620
 0.8970	53.3790
 0.8980	53.3990
 0.8990	53.4120
 0.9000	53.4150
 0.9010	53.4320
 0.9020	53.4440
 0.9030	53.4500
 0.9040	53.4720
 0.9050	53.4930
 0.9060	53.5060
 0.9070	53.5130
 0.9080	53.5170
 0.9090	53.5250
 0.9100	53.5340
 0.9110	53.5400
 0.9120	53.5520
 0.9130	53.5590
 0.9140	53.5680
 0.9150	53.5840
 0.9160	53.5830
 0.9170	53.5880
 0.9180	53.6000
 0.9190	53.6040
 0.9200	53.5970
 0.9210	53.5920
 0.9220	53.5900
 0.9230	53.5840
 0.9240	53.5800
 0.9250	53.5650
 0.9260	53.5420
 0.9270	53.5290
 0.9280	53.5080
 0.9290	53.4750
 0.9300	53.4390
 0.9310	53.4140
 0.9320	53.3780
 0.9330	53.3380
 0.9340	53.2970
 0.9350	53.2410
 0.9360	53.2030
 0.9370	53.1680
 0.9380	53.1180
 0.9390	53.0500
 0.9400	52.9960
 0.9410	52.9400
 0.9420	52.8690
 0.9430	52.7920
 0.9440	52.7120
 0.9450	52.6180
 0.9460	52.5100
 0.9470	52.4200
 0.9480	52.3120
 0.9490	52.1830
 0.9500	52.0430
 0.9510	51.8940
 0.9520	51.7420
 0.9530	51.5870
 0.9540	51.4290
 0.9550	51.2750
 0.9560	51.1220
 0.9570	50.9610
 0.9580	50.7940
 0.9590	50.6530
 0.9600	50.5350
 0.9610	50.4260
 0.9620	50.3160
 0.9630	50.2290
 0.9640	50.1440
 0.9650	50.0650
 0.9660	50.0010
 0.9670	49.9430
 0.9680	49.9020
 0.9690	49.8680
 0.9700	49.8250
 0.9710	49.7870
 0.9720	49.7720
 0.9730	49.7540
 0.9740	49.7030
 0.9750	49.6880
 0.9760	49.6870
 0.9770	49.6920
 0.9780	49.6980
 0.9790	49.7080
 0.9800	49.7170
 0.9810	49.7270
 0.9820	49.7460
 0.9830	49.7700
 0.9840	49.8040
 0.9850	49.8390
 0.9860	49.8730
 0.9870	49.9330
 0.9880	49.9750
 0.9890	50.0090
 0.9900	50.0670
 0.9910	50.1170
 0.9920	50.2080
 0.9930	50.3000
 0.9940	50.3920
 0.9950	50.4830
 0.9960	50.5750
 0.9970	50.6670
 0.9980	50.7580
 0.9990	50.8500
 1.0000	50.9410
 1.0010	51.0330
 1.0020	51.1250
 1.0030	51.2160
 1.0040	51.3080
 1.0050	51.3990
 1.0060	51.4910
 1.0070	51.5830
 1.0080	51.6740
 1.0090	51.7660
 1.0100	51.7660
 1.0110	51.8450
 1.0120	51.9260
 1.0130	52.0100
 1.0140	52.0920
 1.0150	52.1750
 1.0160	52.2520
 1.0170	52.3310
 1.0180	52.4080
 1.0190	52.4890
 1.0200	52.5700
 1.0210	52.6440
 1.0220	52.7160
 1.0230	52.7920
 1.0240	52.8680
 1.0250	52.9450
 1.0260	53.0290
 1.0270	53.1050
 1.0280	53.1760
 1.0290	53.2480
 1.0300	53.3180
 1.0310	53.3870
 1.0320	53.4550
 1.0330	53.5200
 1.0340	53.5850
 1.0350	53.6490
 1.0360	53.7110
 1.0370	53.7740
 1.0380	53.8340
 1.0390	53.8930
 1.0400	53.9500
 1.0410	54.0060
 1.0420	54.0610
 1.0430	54.1160
 1.0440	54.1670
 1.0450	54.2170
 1.0460	54.2650
 1.0470	54.3130
 1.0480	54.3580
 1.0490	54.4010
 1.0500	54.4460
 1.0510	54.4950
 1.0520	54.5380
 1.0530	54.5800
 1.0540	54.6220
 1.0550	54.6640
 1.0560	54.7030
 1.0570	54.7410
 1.0580	54.7800
 1.0590	54.8130
 1.0600	54.8400
 1.0610	54.8690
 1.0620	54.8970
 1.0630	54.9250
 1.0640	54.9530
 1.0650	54.9780
 1.0660	55.0010
 1.0670	55.0240
 1.0680	55.0450
 1.0690	55.0650
 1.0700	55.0840
 1.0710	55.1030
 1.0720	55.1200
 1.0730	55.1360
 1.0740	55.1480
 1.0750	55.1600
 1.0760	55.1680
 1.0770	55.1690
 1.0780	55.1750
 1.0790	55.1830
 1.0800	55.1870
 1.0810	55.1910
 1.0820	55.1940
 1.0830	55.1960
 1.0840	55.1930
 1.0850	55.1900
 1.0860	55.1830
 1.0870	55.1740
 1.0880	55.1620
 1.0890	55.1490
 1.0900	55.1370
 1.0910	55.1220
 1.0920	55.1080
 1.0930	55.0890
 1.0940	55.0690
 1.0950	55.0470
 1.0960	55.0190
 1.0970	54.9930
 1.0980	54.9690
 1.0990	54.9420
 1.1000	54.9140
 1.1010	54.8850
 1.1020	54.8510
 1.1030	54.8170
 1.1040	54.7850
 1.1050	54.7510
 1.1060	54.7120
 1.1070	54.6710
 1.1080	54.6280
 1.1090	54.5800
 1.1100	54.5320
 1.1110	54.4830
 1.1120	54.4300
 1.1130	54.3760
 1.1140	54.3120
 1.1150	54.2420
 1.1160	54.1710
 1.1170	54.0990
 1.1180	54.0150
 1.1190	53.9280
 1.1200	53.8320
 1.1210	53.7250
 1.1220	53.6060
 1.1230	53.4790
 1.1240	53.3430
 1.1250	53.1910
 1.1260	53.0270
 1.1270	52.8470
 1.1280	52.6520
 1.1290	52.4430
 1.1300	52.2200
 1.1310	51.9810
 1.1320	51.7310
 1.1330	51.4630
 1.1340	51.1800
 1.1350	50.8820
 1.1360	50.5690
 1.1370	50.2420
 1.1380	49.9060
 1.1390	49.5610
 1.1400	49.2060
 1.1410	48.8490
 1.1420	48.4890
 1.1430	48.1250
 1.1440	47.7650
 1.1450	47.4000
 1.1460	47.0490
 1.1470	46.6960
 1.1480	46.3630
 1.1490	46.0390
 1.1500	45.7350
 1.1510	45.4430
 1.1520	45.1720
 1.1530	44.9150
 1.1540	44.6800
 1.1550	44.4640
 1.1560	44.2660
 1.1570	44.0860
 1.1580	43.9280
 1.1590	43.7850
 1.1600	43.6540
 1.1610	43.5410
 1.1620	43.4380
 1.1630	43.3450
 1.1640	43.2620
 1.1650	43.1870
 1.1660	43.1210
 1.1670	43.0590
 1.1680	43.0060
 1.1690	42.9550
 1.1700	42.9100
 1.1710	42.8650
 1.1720	42.8240
 1.1730	42.7790
 1.1740	42.7330
 1.1750	42.6860
 1.1760	42.6410
 1.1770	42.5940
 1.1780	42.5460
 1.1790	42.4980
 1.1800	42.4470
 1.1810	42.3950
 1.1820	42.3420
 1.1830	42.2910
 1.1840	42.2410
 1.1850	42.1920
 1.1860	42.1460
 1.1870	42.1020
 1.1880	42.0600
 1.1890	42.0190
 1.1900	41.9830
 1.1910	41.9510
 1.1920	41.9240
 1.1930	41.9020
 1.1940	41.8810
 1.1950	41.8640
 1.1960	41.8490
 1.1970	41.8370
 1.1980	41.8310
 1.1990	41.8300
 1.2000	41.8330
 1.2010	41.8420
 1.2020	41.8560
 1.2030	41.8740
 1.2040	41.8980
 1.2050	41.9310
 1.2060	41.9680
 1.2070	42.0120
 1.2080	42.0600
 1.2090	42.1100
 1.2100	42.1640
 1.2110	42.2250
 1.2120	42.2920
 1.2130	42.3630
 1.2140	42.4410
 1.2150	42.5200
 1.2160	42.6020
 1.2170	42.6860
 1.2180	42.7720
 1.2190	42.8630
 1.2200	42.9550
 1.2210	43.0490
 1.2220	43.1420
 1.2230	43.2350
 1.2240	43.3270
 1.2250	43.4170
 1.2260	43.5050
 1.2270	43.5920
 1.2280	43.6770
 1.2290	43.7600
 1.2300	43.8400
 1.2310	43.9180
 1.2320	43.9930
 1.2330	44.0660
 1.2340	44.1370
 1.2350	44.2100
 1.2360	44.2780
 1.2370	44.3440
 1.2380	44.4080
 1.2390	44.4710
 1.2400	44.5290
 1.2410	44.5870
 1.2420	44.6430
 1.2430	44.6980
 1.2440	44.7520
 1.2450	44.8040
 1.2460	44.8560
 1.2470	44.9050
 1.2480	44.9510
 1.2490	44.9960
 1.2500	45.0390
 1.2510	45.0790
 1.2520	45.1190
 1.2530	45.1580
 1.2540	45.1940
 1.2550	45.2270
 1.2560	45.2580
 1.2570	45.2880
 1.2580	45.3130
 1.2590	45.3370
 1.2600	45.3570
 1.2610	45.3770
 1.2620	45.3940
 1.2630	45.4090
 1.2640	45.4220
 1.2650	45.4330
 1.2660	45.4410
 1.2670	45.4480
 1.2680	45.4550
 1.2690	45.4590
 1.2700	45.4560
 1.2710	45.4520
 1.2720	45.4440
 1.2730	45.4330
 1.2740	45.4230
 1.2750	45.4110
 1.2760	45.3950
 1.2770	45.3770
 1.2780	45.3560
 1.2790	45.3310
 1.2800	45.3020
 1.2810	45.2720
 1.2820	45.2400
 1.2830	45.2060
 1.2840	45.1680
 1.2850	45.1240
 1.2860	45.0770
 1.2870	45.0260
 1.2880	44.9690
 1.2890	44.9120
 1.2900	44.8510
 1.2910	44.7840
 1.2920	44.7140
 1.2930	44.6370
 1.2940	44.5560
 1.2950	44.4730
 1.2960	44.3830
 1.2970	44.2930
 1.2980	44.1960
 1.2990	44.0930
 1.3000	43.9890
 1.3010	43.8760
 1.3020	43.7590
 1.3030	43.6400
 1.3040	43.5130
 1.3050	43.3800
 1.3060	43.2440
 1.3070	43.0980
 1.3080	42.9500
 1.3090	42.7970
 1.3100	42.6350
 1.3110	42.4660
 1.3120	42.2920
 1.3130	42.1120
 1.3140	41.9260
 1.3150	41.7350
 1.3160	41.5400
 1.3170	41.3410
 1.3180	41.1370
 1.3190	40.9280
 1.3200	40.7130
 1.3210	40.4890
 1.3220	40.2600
 1.3230	40.0280
 1.3240	39.7920
 1.3250	39.5560
 1.3260	39.3150
 1.3270	39.0670
 1.3280	38.8200
 1.3290	38.5690
 1.3300	38.3160
 1.3310	38.0630
 1.3320	37.8070
 1.3330	37.5520
 1.3340	37.2960
 1.3350	37.0390
 1.3360	36.7840
 1.3370	36.5270
 1.3380	36.2750
 1.3390	36.0250
 1.3400	35.7770
 1.3410	35.5340
 1.3420	35.2940
 1.3430	35.0560
 1.3440	34.8230
 1.3450	34.5920
 1.3460	34.3630
 1.3470	34.1400
 1.3480	33.9190
 1.3490	33.7040
 1.3500	33.4930
 1.3510	33.2840
 1.3520	33.0770
 1.3530	32.8730
 1.3540	32.6690
 1.3550	32.4680
 1.3560	32.2670
 1.3570	32.0670
 1.3580	31.8670
 1.3590	31.6680
 1.3600	31.4670
 1.3610	31.2640
 1.3620	31.0550
 1.3630	30.8420
 1.3640	30.6240
 1.3650	30.4000
 1.3660	30.1730
 1.3670	29.9370
 1.3680	29.6890
 1.3690	29.4300
 1.3700	29.1560
 1.3710	28.8700
 1.3720	28.5730
 1.3730	28.2590
 1.3740	27.9320
 1.3750	27.5870
 1.3760	27.2200
 1.3770	26.8340
 1.3780	26.4240
 1.3790	25.9960
 1.3800	25.5490
 1.3810	25.0810
 1.3820	24.6030
 1.3830	24.1100
 1.3840	23.6070
 1.3850	23.0900
 1.3860	22.5700
 1.3870	22.0370
 1.3880	21.5090
 1.3890	20.9780
 1.3900	20.4460
 1.3910	19.9220
 1.3920	19.4000
 1.3930	18.8820
 1.3940	18.3750
 1.3950	17.8720
 1.3960	17.3830
 1.3970	16.9100
 1.3980	16.4480
 1.3990	16.0100
 1.4000	15.5890
 1.4010	15.1830
 1.4020	14.7990
 1.4030	14.4290
 1.4040	14.0780
 1.4050	13.7470
 1.4060	13.4340
 1.4070	13.1430
 1.4080	12.8690
 1.4090	12.6120
 1.4100	12.3740
 1.4110	12.1490
 1.4120	11.9410
 1.4130	11.7470
 1.4140	11.5660
 1.4150	11.4020
 1.4160	11.2500
 1.4170	11.1100
 1.4180	10.9810
 1.4190	10.8600
 1.4200	10.7480
 1.4210	10.6460
 1.4220	10.5530
 1.4230	10.4690
 1.4240	10.3920
 1.4250	10.3210
 1.4260	10.2580
 1.4270	10.1990
 1.4280	10.1470
 1.4290	10.0980
 1.4300	10.0550
 1.4310	10.0170
 1.4320	 9.9850
 1.4330	 9.9550
 1.4340	 9.9310
 1.4350	 9.9090
 1.4360	 9.8900
 1.4370	 9.8750
 1.4380	 9.8630
 1.4390	 9.8540
 1.4400	 9.8480
 1.4410	 9.8450
 1.4420	 9.8430
 1.4430	 9.8430
 1.4440	 9.8440
 1.4450	 9.8480
 1.4460	 9.8530
 1.4470	 9.8600
 1.4480	 9.8680
 1.4490	 9.8770
 1.4500	 9.8870
 1.4510	 9.8980
 1.4520	 9.9110
 1.4530	 9.9240
 1.4540	 9.9400
 1.4550	 9.9560
 1.4560	 9.9740
 1.4570	 9.9930
 1.4580	10.0140
 1.4590	10.0360
 1.4600	10.0630
 1.4610	10.0900
 1.4620	10.1200
 1.4630	10.1530
 1.4640	10.1880
 1.4650	10.2250
 1.4660	10.2670
 1.4670	10.3120
 1.4680	10.3600
 1.4690	10.4120
 1.4700	10.4660
 1.4710	10.5240
 1.4720	10.5830
 1.4730	10.6450
 1.4740	10.7110
 1.4750	10.7780
 1.4760	10.8470
 1.4770	10.9190
 1.4780	10.9910
 1.4790	11.0660
 1.4800	11.1430
 1.4810	11.2210
 1.4820	11.3010
 1.4830	11.3810
 1.4840	11.4630
 1.4850	11.5460
 1.4860	11.6290
 1.4870	11.7140
 1.4880	11.7990
 1.4890	11.8840
 1.4900	11.9690
 1.4910	12.0570
 1.4920	12.1440
 1.4930	12.2330
 1.4940	12.3210
 1.4950	12.4100
 1.4960	12.4990
 1.4970	12.5880
 1.4980	12.6770
 1.4990	12.7670
 1.5000	12.8570
 1.5010	12.9480
 1.5020	13.0390
 1.5030	13.1290
 1.5040	13.2200
 1.5050	13.3100
 1.5060	13.4010
 1.5070	13.4930
 1.5080	13.5840
 1.5090	13.6760
 1.5100	13.7670
 1.5110	13.8570
 1.5120	13.9470
 1.5130	14.0340
 1.5140	14.1220
 1.5150	14.2110
 1.5160	14.2990
 1.5170	14.3890
 1.5180	14.4780
 1.5190	14.5670
 1.5200	14.6540
 1.5210	14.7400
 1.5220	14.8260
 1.5230	14.9130
 1.5240	14.9990
 1.5250	15.0840
 1.5260	15.1670
 1.5270	15.2490
 1.5280	15.3310
 1.5290	15.4130
 1.5300	15.4950
 1.5310	15.5770
 1.5320	15.6570
 1.5330	15.7390
 1.5340	15.8180
 1.5350	15.8970
 1.5360	15.9760
 1.5370	16.0530
 1.5380	16.1300
 1.5390	16.2080
 1.5400	16.2850
 1.5410	16.3610
 1.5420	16.4360
 1.5430	16.5100
 1.5440	16.5840
 1.5450	16.6570
 1.5460	16.7300
 1.5470	16.8040
 1.5480	16.8770
 1.5490	16.9500
 1.5500	17.0230
 1.5510	17.0950
 1.5520	17.1660
 1.5530	17.2360
 1.5540	17.3040
 1.5550	17.3710
 1.5560	17.4380
 1.5570	17.5060
 1.5580	17.5740
 1.5590	17.6420
 1.5600	17.7090
 1.5610	17.7740
 1.5620	17.8400
 1.5630	17.9060
 1.5640	17.9700
 1.5650	18.0350
 1.5660	18.1000
 1.5670	18.1640
 1.5680	18.2290
 1.5690	18.2930
 1.5700	18.3560
 1.5710	18.4200
 1.5720	18.4820
 1.5730	18.5460
 1.5740	18.6080
 1.5750	18.6700
 1.5760	18.7330
 1.5770	18.7950
 1.5780	18.8560
 1.5790	18.9180
 1.5800	18.9800
 1.5810	19.0420
 1.5820	19.1040
 1.5830	19.1660
 1.5840	19.2280
 1.5850	19.2890
 1.5860	19.3510
 1.5870	19.4120
 1.5880	19.4730
 1.5890	19.5340
 1.5900	19.5950
 1.5910	19.6560
 1.5920	19.7180
 1.5930	19.7800
 1.5940	19.8420
 1.5950	19.9040
 1.5960	19.9640
 1.5970	20.0250
 1.5980	20.0850
 1.5990	20.1450
 1.6000	20.2060
 1.6010	20.2660
 1.6020	20.3250
 1.6030	20.3850
 1.6040	20.4420
 1.6050	20.4990
 1.6060	20.5560
 1.6070	20.6110
 1.6080	20.6660
 1.6090	20.7210
 1.6100	20.7750
 1.6110	20.8290
 1.6120	20.8840
 1.6130	20.9380
 1.6140	20.9900
 1.6150	21.0420
 1.6160	21.0950
 1.6170	21.1450
 1.6180	21.1950
 1.6190	21.2450
 1.6200	21.2910
 1.6210	21.3390
 1.6220	21.3860
 1.6230	21.4330
 1.6240	21.4780
 1.6250	21.5220
 1.6260	21.5660
 1.6270	21.6090
 1.6280	21.6510
 1.6290	21.6920
 1.6300	21.7320
 1.6310	21.7700
 1.6320	21.8080
 1.6330	21.8430
 1.6340	21.8780
 1.6350	21.9120
 1.6360	21.9460
 1.6370	21.9770
 1.6380	22.0050
 1.6390	22.0330
 1.6400	22.0590
 1.6410	22.0830
 1.6420	22.1050
 1.6430	22.1230
 1.6440	22.1370
 1.6450	22.1490
 1.6460	22.1590
 1.6470	22.1660
 1.6480	22.1690
 1.6490	22.1710
 1.6500	22.1700
 1.6510	22.1660
 1.6520	22.1590
 1.6530	22.1480
 1.6540	22.1370
 1.6550	22.1220
 1.6560	22.1060
 1.6570	22.0880
 1.6580	22.0680
 1.6590	22.0470
 1.6600	22.0280
 1.6610	22.0070
 1.6620	21.9870
 1.6630	21.9700
 1.6640	21.9540
 1.6650	21.9380
 1.6660	21.9250
 1.6670	21.9120
 1.6680	21.8990
 1.6690	21.8900
 1.6700	21.8790
 1.6710	21.8700
 1.6720	21.8600
 1.6730	21.8460
 1.6740	21.8330
 1.6750	21.8180
 1.6760	21.8010
 1.6770	21.7820
 1.6780	21.7600
 1.6790	21.7340
 1.6800	21.7050
 1.6810	21.6730
 1.6820	21.6390
 1.6830	21.5990
 1.6840	21.5580
 1.6850	21.5140
 1.6860	21.4660
 1.6870	21.4170
 1.6880	21.3670
 1.6890	21.3130
 1.6900	21.2580
 1.6910	21.2020
 1.6920	21.1440
 1.6930	21.0850
 1.6940	21.0240
 1.6950	20.9610
 1.6960	20.8990
 1.6970	20.8360
 1.6980	20.7740
 1.6990	20.7120
 1.7000	20.6480
 1.7010	20.5820
 1.7020	20.5180
 1.7030	20.4540
 1.7040	20.3900
 1.7050	20.3270
 1.7060	20.2640
 1.7070	20.2000
 1.7080	20.1390
 1.7090	20.0790
 1.7100	20.0230
 1.7110	19.9700
 1.7120	19.9180
 1.7130	19.8680
 1.7140	19.8180
 1.7150	19.7690
 1.7160	19.7230
 1.7170	19.6760
 1.7180	19.6300
 1.7190	19.5890
 1.7200	19.5470
 1.7210	19.5080
 1.7220	19.4710
 1.7230	19.4350
 1.7240	19.4000
 1.7250	19.3680
 1.7260	19.3400
 1.7270	19.3160
 1.7280	19.2930
 1.7290	19.2720
 1.7300	19.2510
 1.7310	19.2310
 1.7320	19.2150
 1.7330	19.1960
 1.7340	19.1790
 1.7350	19.1580
 1.7360	19.1350
 1.7370	19.1090
 1.7380	19.0810
 1.7390	19.0480
 1.7400	19.0120
 1.7410	18.9720
 1.7420	18.9280
 1.7430	18.8820
 1.7440	18.8320
 1.7450	18.7830
 1.7460	18.7320
 1.7470	18.6810
 1.7480	18.6290
 1.7490	18.5780
 1.7500	18.5240
 1.7510	18.4750
 1.7520	18.4260
 1.7530	18.3770
 1.7540	18.3300
 1.7550	18.2850
 1.7560	18.2390
 1.7570	18.1960
 1.7580	18.1580
 1.7590	18.1230
 1.7600	18.0880
 1.7610	18.0550
 1.7620	18.0240
 1.7630	17.9900
 1.7640	17.9610
 1.7650	17.9360
 1.7660	17.9120
 1.7670	17.8930
 1.7680	17.8720
 1.7690	17.8520
 1.7700	17.8320
 1.7710	17.8110
 1.7720	17.7910
 1.7730	17.7720
 1.7740	17.7530
 1.7750	17.7350
 1.7760	17.7170
 1.7770	17.6990
 1.7780	17.6830
 1.7790	17.6690
 1.7800	17.6550
 1.7810	17.6420
 1.7820	17.6300
 1.7830	17.6190
 1.7840	17.6090
 1.7850	17.6020
 1.7860	17.5960
 1.7870	17.5900
 1.7880	17.5880
 1.7890	17.5860
 1.7900	17.5870
 1.7910	17.5870
 1.7920	17.5860
 1.7930	17.5880
 1.7940	17.5920
 1.7950	17.5960
 1.7960	17.6010
 1.7970	17.6070
 1.7980	17.6130
 1.7990	17.6210
 1.8000	17.6300
 1.8010	17.6390
 1.8020	17.6500
 1.8030	17.6590
 1.8040	17.6690
 1.8050	17.6790
 1.8060	17.6880
 1.8070	17.6970
 1.8080	17.7060
 1.8090	17.7140
 1.8100	17.7220
 1.8110	17.7290
 1.8120	17.7340
 1.8130	17.7410
 1.8140	17.7480
 1.8150	17.7530
 1.8160	17.7600
 1.8170	17.7640
 1.8180	17.7660
 1.8190	17.7690
 1.8200	17.7710
 1.8210	17.7730
 1.8220	17.7760
 1.8230	17.7790
 1.8240	17.7790
 1.8250	17.7770
 1.8260	17.7750
 1.8270	17.7690
 1.8280	17.7630
 1.8290	17.7560
 1.8300	17.7500
 1.8310	17.7430
 1.8320	17.7370
 1.8330	17.7310
 1.8340	17.7240
 1.8350	17.7240
 1.8360	17.7000
 1.8370	17.6720
 1.8380	17.6370
 1.8390	17.6000
 1.8400	17.5600
 1.8410	17.5150
 1.8420	17.4660
 1.8430	17.4150
 1.8440	17.3560
 1.8450	17.2890
 1.8460	17.2170
 1.8470	17.1370
 1.8480	17.0500
 1.8490	16.9590
 1.8500	16.8590
 1.8510	16.7530
 1.8520	16.6350
 1.8530	16.5070
 1.8540	16.3710
 1.8550	16.2250
 1.8560	16.0710
 1.8570	15.9100
 1.8580	15.7330
 1.8590	15.5490
 1.8600	15.3540
 1.8610	15.1500
 1.8620	14.9330
 1.8630	14.7100
 1.8640	14.4730
 1.8650	14.2210
 1.8660	13.9630
 1.8670	13.6890
 1.8680	13.4040
 1.8690	13.1080
 1.8700	12.8020
 1.8710	12.4810
 1.8720	12.1590
 1.8730	11.8330
 1.8740	11.5000
 1.8750	11.1670
 1.8760	10.8270
 1.8770	10.4850
 1.8780	10.1460
 1.8790	 9.8050
 1.8800	 9.4710
 1.8810	 9.1420
 1.8820	 8.8150
 1.8830	 8.4900
 1.8840	 8.1730
 1.8850	 7.8590
 1.8860	 7.5510
 1.8870	 7.2540
 1.8880	 6.9650
 1.8890	 6.6900
 1.8900	 6.4260
 1.8910	 6.1740
 1.8920	 5.9290
 1.8930	 5.7030
 1.8940	 5.4870
 1.8950	 5.2840
 1.8960	 5.0970
 1.8970	 4.9240
 1.8980	 4.7630
 1.8990	 4.6140
 1.9000	 4.4750
 1.9010	 4.3500
 1.9020	 4.2320
 1.9030	 4.1250
 1.9040	 4.0300
 1.9050	 3.9430
 1.9060	 3.8640
 1.9070	 3.7960
 1.9080	 3.7340
 1.9090	 3.6790
 1.9100	 3.6310
 1.9110	 3.5870
 1.9120	 3.5490
 1.9130	 3.5130
 1.9140	 3.4820
 1.9150	 3.4550
 1.9160	 3.4300
 1.9170	 3.4090
 1.9180	 3.3890
 1.9190	 3.3700
 1.9200	 3.3570
 1.9210	 3.3450
 1.9220	 3.3360
 1.9230	 3.3330
 1.9240	 3.3300
 1.9250	 3.3300
 1.9260	 3.3290
 1.9270	 3.3310
 1.9280	 3.3320
 1.9290	 3.3340
 1.9300	 3.3380
 1.9310	 3.3430
 1.9320	 3.3500
 1.9330	 3.3580
 1.9340	 3.3680
 1.9350	 3.3790
 1.9360	 3.3900
 1.9370	 3.4030
 1.9380	 3.4180
 1.9390	 3.4330
 1.9400	 3.4500
 1.9410	 3.4700
 1.9420	 3.4880
 1.9430	 3.5050
 1.9440	 3.5240
 1.9450	 3.5410
 1.9460	 3.5630
 1.9470	 3.5870
 1.9480	 3.6100
 1.9490	 3.6350
 1.9500	 3.6600
 1.9510	 3.6830
 1.9520	 3.7060
 1.9530	 3.7300
 1.9540	 3.7560
 1.9550	 3.7830
 1.9560	 3.8100
 1.9570	 3.8370
 1.9580	 3.8650
 1.9590	 3.8940
 1.9600	 3.9250
 1.9610	 3.9560
 1.9620	 3.9870
 1.9630	 4.0190
 1.9640	 4.0550
 1.9650	 4.0870
 1.9660	 4.1190
 1.9670	 4.1520
 1.9680	 4.1850
 1.9690	 4.2160
 1.9700	 4.2490
 1.9710	 4.2850
 1.9720	 4.3200
 1.9730	 4.3570
 1.9740	 4.3910
 1.9750	 4.4270
 1.9760	 4.4660
 1.9770	 4.5000
 1.9780	 4.5380
 1.9790	 4.5760
 1.9800	 4.6130
 1.9810	 4.6510
 1.9820	 4.6930
 1.9830	 4.7340
 1.9840	 4.7740
 1.9850	 4.8150
 1.9860	 4.8540
 1.9870	 4.8940
 1.9880	 4.9370
 1.9890	 4.9800
 1.9900	 5.0220
 1.9910	 5.0640
 1.9920	 5.1050
 1.9930	 5.1450
 1.9940	 5.1850
 1.9950	 5.2270
 1.9960	 5.2690
 1.9970	 5.3100
 1.9980	 5.3520
 1.9990	 5.3950
 2.0000	 5.4380
 2.0010	 5.4780
 2.0020	 5.5200
 2.0030	 5.5600
 2.0040	 5.6000
 2.0050	 5.6390
 2.0060	 5.6770
 2.0070	 5.7150
 2.0080	 5.7530
 2.0090	 5.7920
 2.0100	 5.8310
 2.0110	 5.8710
 2.0120	 5.9100
 2.0130	 5.9480
 2.0140	 5.9860
 2.0150	 6.0230
 2.0160	 6.0590
 2.0170	 6.0950
 2.0180	 6.1290
 2.0190	 6.1640
 2.0200	 6.1980
 2.0210	 6.2320
 2.0220	 6.2640
 2.0230	 6.2950
 2.0240	 6.3260
 2.0250	 6.3530
 2.0260	 6.3820
 2.0270	 6.4100
 2.0280	 6.4410
 2.0290	 6.4710
 2.0300	 6.5000
 2.0310	 6.5270
 2.0320	 6.5530
 2.0330	 6.5780
 2.0340	 6.6000
 2.0350	 6.6240
 2.0360	 6.6510
 2.0370	 6.6750
 2.0380	 6.6990
 2.0390	 6.7220
 2.0400	 6.7400
 2.0410	 6.7600
 2.0420	 6.7810
 2.0430	 6.8000
 2.0440	 6.8180
 2.0450	 6.8360
 2.0460	 6.8540
 2.0470	 6.8720
 2.0480	 6.8890
 2.0490	 6.9060
 2.0500	 6.9220
 2.0510	 6.9360
 2.0520	 6.9520
 2.0530	 6.9700
 2.0540	 6.9890
 2.0550	 7.0090
 2.0560	 7.0290
 2.0570	 7.0490
 2.0580	 7.0670
 2.0590	 7.0850
 2.0600	 7.1010
 2.0610	 7.1190
 2.0620	 7.1380
 2.0630	 7.1570
 2.0640	 7.1780
 2.0650	 7.1980
 2.0660	 7.2190
 2.0670	 7.2400
 2.0680	 7.2610
 2.0690	 7.2810
 2.0700	 7.2990
 2.0710	 7.3170
 2.0720	 7.3350
 2.0730	 7.3540
 2.0740	 7.3730
 2.0750	 7.3920
 2.0760	 7.4100
 2.0770	 7.4260
 2.0780	 7.4440
 2.0790	 7.4640
 2.0800	 7.4830
 2.0810	 7.5020
 2.0820	 7.5200
 2.0830	 7.5370
 2.0840	 7.5550
 2.0850	 7.5750
 2.0860	 7.5950
 2.0870	 7.6150
 2.0880	 7.6330
 2.0890	 7.6520
 2.0900	 7.6730
 2.0910	 7.6920
 2.0920	 7.7090
 2.0930	 7.7280
 2.0940	 7.7450
 2.0950	 7.7620
 2.0960	 7.7800
 2.0970	 7.7980
 2.0980	 7.8140
 2.0990	 7.8320
 2.1000	 7.8500
 2.1010	 7.8690
 2.1020	 7.8900
 2.1030	 7.9100
 2.1040	 7.9310
 2.1050	 7.9510
 2.1060	 7.9710
 2.1070	 7.9910
 2.1080	 8.0100
 2.1090	 8.0300
 2.1100	 8.0480
 2.1110	 8.0630
 2.1120	 8.0810
 2.1130	 8.1000
 2.1140	 8.1190
 2.1150	 8.1400
 2.1160	 8.1590
 2.1170	 8.1760
 2.1180	 8.1940
 2.1190	 8.2130
 2.1200	 8.2300
 2.1210	 8.2480
 2.1220	 8.2670
 2.1230	 8.2850
 2.1240	 8.3020
 2.1250	 8.3200
 2.1260	 8.3410
 2.1270	 8.3600
 2.1280	 8.3790
 2.1290	 8.3960
 2.1300	 8.4110
 2.1310	 8.4270
 2.1320	 8.4410
 2.1330	 8.4580
 2.1340	 8.4770
 2.1350	 8.4960
 2.1360	 8.5160
 2.1370	 8.5340
 2.1380	 8.5470
 2.1390	 8.5650
 2.1400	 8.5840
 2.1410	 8.6030
 2.1420	 8.6240
 2.1430	 8.6500
 2.1440	 8.6700
 2.1450	 8.6890
 2.1460	 8.7090
 2.1470	 8.7270
 2.1480	 8.7470
 2.1490	 8.7700
 2.1500	 8.7920
 2.1510	 8.8160
 2.1520	 8.8370
 2.1530	 8.8550
 2.1540	 8.8750
 2.1550	 8.8940
 2.1560	 8.9150
 2.1570	 8.9400
 2.1580	 8.9630
 2.1590	 8.9860
 2.1600	 9.0090
 2.1610	 9.0310
 2.1620	 9.0540
 2.1630	 9.0770
 2.1640	 9.1010
 2.1650	 9.1220
 2.1660	 9.1430
 2.1670	 9.1630
 2.1680	 9.1790
 2.1690	 9.1990
 2.1700	 9.2220
 2.1710	 9.2420
 2.1720	 9.2650
 2.1730	 9.2850
 2.1740	 9.3000
 2.1750	 9.3200
 2.1760	 9.3410
 2.1770	 9.3610
 2.1780	 9.3810
 2.1790	 9.4020
 2.1800	 9.4220
 2.1810	 9.4420
 2.1820	 9.4650
 2.1830	 9.4870
 2.1840	 9.5060
 2.1850	 9.5230
 2.1860	 9.5420
 2.1870	 9.5610
 2.1880	 9.5820
 2.1890	 9.6070
 2.1900	 9.6280
 2.1910	 9.6460
 2.1920	 9.6670
 2.1930	 9.6890
 2.1940	 9.7090
 2.1950	 9.7320
 2.1960	 9.7510
 2.1970	 9.7650
 2.1980	 9.7810
 2.1990	 9.7960
 2.2000	 9.8120
 2.2010	 9.8300
 2.2020	 9.8480
 2.2030	 9.8690
 2.2040	 9.8870
 2.2050	 9.9010
 2.2060	 9.9170
 2.2070	 9.9310
 2.2080	 9.9440
 2.2090	 9.9570
 2.2100	 9.9730
 2.2110	 9.9840
 2.2120	 9.9910
 2.2130	 9.9990
 2.2140	10.0040
 2.2150	10.0100
 2.2160	10.0180
 2.2170	10.0240
 2.2180	10.0290
 2.2190	10.0320
 2.2200	10.0330
 2.2210	10.0330
 2.2220	10.0300
 2.2230	10.0250
 2.2240	10.0190
 2.2250	10.0090
 2.2260	 9.9970
 2.2270	 9.9830
 2.2280	 9.9640
 2.2290	 9.9470
 2.2300	 9.9320
 2.2310	 9.9120
 2.2320	 9.8910
 2.2330	 9.8650
 2.2340	 9.8360
 2.2350	 9.7990
 2.2360	 9.7660
 2.2370	 9.7330
 2.2380	 9.7000
 2.2390	 9.6690
 2.2400	 9.6310
 2.2410	 9.5910
 2.2420	 9.5470
 2.2430	 9.4980
 2.2440	 9.4480
 2.2450	 9.3930
 2.2460	 9.3400
 2.2470	 9.2850
 2.2480	 9.2300
 2.2490	 9.1760
 2.2500	 9.1200
 2.2510	 9.0590
 2.2520	 9.0030
 2.2530	 8.9490
 2.2540	 8.8930
 2.2550	 8.8380
 2.2560	 8.7820
 2.2570	 8.7240
 2.2580	 8.6680
 2.2590	 8.6120
 2.2600	 8.5570
 2.2610	 8.5040
 2.2620	 8.4530
 2.2630	 8.4010
 2.2640	 8.3470
 2.2650	 8.3000
 2.2660	 8.2520
 2.2670	 8.2050
 2.2680	 8.1620
 2.2690	 8.1160
 2.2700	 8.0700
 2.2710	 8.0250
 2.2720	 7.9800
 2.2730	 7.9390
 2.2740	 7.8990
 2.2750	 7.8630
 2.2760	 7.8320
 2.2770	 7.7960
 2.2780	 7.7590
 2.2790	 7.7240
 2.2800	 7.6890
 2.2810	 7.6540
 2.2820	 7.6210
 2.2830	 7.5850
 2.2840	 7.5440
 2.2850	 7.5090
 2.2860	 7.4780
 2.2870	 7.4440
 2.2880	 7.4120
 2.2890	 7.3770
 2.2900	 7.3370
 2.2910	 7.2990
 2.2920	 7.2610
 2.2930	 7.2230
 2.2940	 7.1830
 2.2950	 7.1440
 2.2960	 7.1050
 2.2970	 7.0670
 2.2980	 7.0270
 2.2990	 6.9910
 2.3000	 6.9530
 2.3010	 6.9180
 2.3020	 6.8900
 2.3030	 6.8670
 2.3040	 6.8500
 2.3050	 6.8320
 2.3060	 6.8080
 2.3070	 6.7870
 2.3080	 6.7700
 2.3090	 6.7570
 2.3100	 6.7510
 2.3110	 6.7490
 2.3120	 6.7430
 2.3130	 6.7350
 2.3140	 6.7290
 2.3150	 6.7200
 2.3160	 6.7140
 2.3170	 6.7110
 2.3180	 6.7070
 2.3190	 6.7050
 2.3200	 6.6990
 2.3210	 6.6920
 2.3220	 6.6840
 2.3230	 6.6750
 2.3240	 6.6640
 2.3250	 6.6530
 2.3260	 6.6390
 2.3270	 6.6190
 2.3280	 6.6000
 2.3290	 6.5790
 2.3300	 6.5570
 2.3310	 6.5320
 2.3320	 6.5090
 2.3330	 6.4840
 2.3340	 6.4620
 2.3350	 6.4420
 2.3360	 6.4210
 2.3370	 6.4040
 2.3380	 6.3820
 2.3390	 6.3580
 2.3400	 6.3340
 2.3410	 6.3050
 2.3420	 6.2810
 2.3430	 6.2610
 2.3440	 6.2390
 2.3450	 6.2190
 2.3460	 6.2000
 2.3470	 6.1810
 2.3480	 6.1610
 2.3490	 6.1380
 2.3500	 6.1220
 2.3510	 6.1140
 2.3520	 6.1020
 2.3530	 6.0930
 2.3540	 6.0870
 2.3550	 6.0700
 2.3560	 6.0580
 2.3570	 6.0390
 2.3580	 6.0180
 2.3590	 6.0100
 2.3600	 5.9960
 2.3610	 5.9880
 2.3620	 5.9790
 2.3630	 5.9550
 2.3640	 5.9380
 2.3650	 5.9220
 2.3660	 5.9030
 2.3670	 5.8900
 2.3680	 5.8720
 2.3690	 5.8470
 2.3700	 5.8270
 2.3710	 5.8090
 2.3720	 5.7920
 2.3730	 5.7750
 2.3740	 5.7600
 2.3750	 5.7430
 2.3760	 5.7180
 2.3770	 5.6970
 2.3780	 5.6750
 2.3790	 5.6500
 2.3800	 5.6310
 2.3810	 5.6090
 2.3820	 5.5940
 2.3830	 5.5850
 2.3840	 5.5640
 2.3850	 5.5460
 2.3860	 5.5330
 2.3870	 5.5110
 2.3880	 5.4910
 2.3890	 5.4720
 2.3900	 5.4440
 2.3910	 5.4140
 2.3920	 5.3890
 2.3930	 5.3620
 2.3940	 5.3390
 2.3950	 5.3220
 2.3960	 5.3020
 2.3970	 5.2870
 2.3980	 5.2710
 2.3990	 5.2550
 2.4000	 5.2320
 2.4010	 5.2090
 2.4020	 5.1880
 2.4030	 5.1490
 2.4040	 5.1170
 2.4050	 5.0870
 2.4060	 5.0500
 2.4070	 5.0220
 2.4080	 5.0040
 2.4090	 4.9850
 2.4100	 4.9580
 2.4110	 4.9500
 2.4120	 4.9390
 2.4130	 4.9160
 2.4140	 4.9030
 2.4150	 4.8780
 2.4160	 4.8480
 2.4170	 4.8170
 2.4180	 4.7860
 2.4190	 4.7500
 2.4200	 4.7160
 2.4210	 4.7000
 2.4220	 4.6780
 2.4230	 4.6620
 2.4240	 4.6400
 2.4250	 4.6090
 2.4260	 4.5910
 2.4270	 4.5690
 2.4280	 4.5500
 2.4290	 4.5370
 2.4300	 4.5130
 2.4310	 4.4930
 2.4320	 4.4790
 2.4330	 4.4510
 2.4340	 4.4200
 2.4350	 4.3900
 2.4360	 4.3510
 2.4370	 4.3160
 2.4380	 4.2920
 2.4390	 4.2660
 2.4400	 4.2370
 2.4410	 4.2120
 2.4420	 4.1820
 2.4430	 4.1480
 2.4440	 4.1170
 2.4450	 4.0860
 2.4460	 4.0730
 2.4470	 4.0570
 2.4480	 4.0300
 2.4490	 4.0070
 2.4500	 3.9720
 2.4510	 3.9370
 2.4520	 3.9200
 2.4530	 3.9070
 2.4540	 3.8970
 2.4550	 3.8860
 2.4560	 3.8760
 2.4570	 3.8520
 2.4580	 3.8120
 2.4590	 3.7660
 2.4600	 3.7310
 2.4610	 3.7140
 2.4620	 3.7050
 2.4630	 3.7010
 2.4640	 3.6790
 2.4650	 3.6480
 2.4660	 3.6220
 2.4670	 3.5960
 2.4680	 3.5870
 2.4690	 3.5840
 2.4700	 3.5820
 2.4710	 3.5940
 2.4720	 3.5890
 2.4730	 3.5760
 2.4740	 3.5520
 2.4750	 3.5100
 2.4760	 3.4880
 2.4770	 3.4650
 2.4780	 3.4450
 2.4790	 3.4450
 2.4800	 3.4300
 2.4810	 3.3960
 2.4820	 3.3850
 2.4830	 3.4050
 2.4840	 3.4330
 2.4850	 3.4250
 2.4860	 3.4210
 2.4870	 3.3990
 2.4880	 3.3590
 2.4890	 3.3800
 2.4900	 3.4110
 2.4910	 3.3930
 2.4920	 3.3640
 2.4930	 3.3370
 2.4940	 3.2920
 2.4950	 3.2870
 2.4960	 3.3380
 2.4970	 3.3290
 2.4980	 3.3010
 2.4990	 3.2870
 2.5000	 3.2460
