Name: Jacaranda mimosifolia
Type: vegetation
Class: Tree
Genus: Jacaranda
Species: mimosifolia
Sample No.: JPL161
Owner: JPL
Wavelength Range: VSWIR
Origin: 34.12557; -118.11327; WGS84
Collection Date: 9/14/2016
Description: Samples were collected at the Huntington Garden in San Marino California as part of a JPL Subcontract studying HyTES imagery. Samples were taken to JPL and processed within 48 hours of collection. The same leaves were processed in the Nicolet and then measured using the ASD.
Measurement: Bidirectional reflectance
First Column: X
Second Column: Y
X Units: Wavelength (micrometer)
Y Units: Reflectance (percentage)
First X Value: 0.35
Last X Value: 2.5
Number of X Values: 2151
Additional Information: vegetation.tree.jacaranda.mimosifolia.vswir.jpl161.jpl.asd.ancillary.txt

 0.3500	 1.8810
 0.3510	 1.9160
 0.3520	 2.0560
 0.3530	 2.0960
 0.3540	 1.9500
 0.3550	 1.9050
 0.3560	 1.8720
 0.3570	 1.8510
 0.3580	 1.8780
 0.3590	 1.8720
 0.3600	 1.8780
 0.3610	 1.9010
 0.3620	 1.8820
 0.3630	 1.8900
 0.3640	 1.9000
 0.3650	 1.8770
 0.3660	 1.8470
 0.3670	 1.8120
 0.3680	 1.8030
 0.3690	 1.8530
 0.3700	 1.8320
 0.3710	 1.8070
 0.3720	 1.8250
 0.3730	 1.8430
 0.3740	 1.8440
 0.3750	 1.8140
 0.3760	 1.7620
 0.3770	 1.7800
 0.3780	 1.7930
 0.3790	 1.7810
 0.3800	 1.7780
 0.3810	 1.7630
 0.3820	 1.7590
 0.3830	 1.7750
 0.3840	 1.7890
 0.3850	 1.8050
 0.3860	 1.8130
 0.3870	 1.8020
 0.3880	 1.7670
 0.3890	 1.7510
 0.3900	 1.7700
 0.3910	 1.8080
 0.3920	 1.8160
 0.3930	 1.8090
 0.3940	 1.8080
 0.3950	 1.8120
 0.3960	 1.8040
 0.3970	 1.7940
 0.3980	 1.8020
 0.3990	 1.8210
 0.4000	 1.8250
 0.4010	 1.8150
 0.4020	 1.8230
 0.4030	 1.8410
 0.4040	 1.8470
 0.4050	 1.8370
 0.4060	 1.8610
 0.4070	 1.8850
 0.4080	 1.8990
 0.4090	 1.9130
 0.4100	 1.9210
 0.4110	 1.9320
 0.4120	 1.9470
 0.4130	 1.9620
 0.4140	 1.9640
 0.4150	 1.9720
 0.4160	 2.0010
 0.4170	 2.0050
 0.4180	 2.0050
 0.4190	 2.0210
 0.4200	 2.0620
 0.4210	 2.0750
 0.4220	 2.0780
 0.4230	 2.0930
 0.4240	 2.1180
 0.4250	 2.1320
 0.4260	 2.1370
 0.4270	 2.1460
 0.4280	 2.1630
 0.4290	 2.1820
 0.4300	 2.1960
 0.4310	 2.2000
 0.4320	 2.2190
 0.4330	 2.2390
 0.4340	 2.2440
 0.4350	 2.2530
 0.4360	 2.2630
 0.4370	 2.2720
 0.4380	 2.2770
 0.4390	 2.2780
 0.4400	 2.2840
 0.4410	 2.2960
 0.4420	 2.2900
 0.4430	 2.3000
 0.4440	 2.3170
 0.4450	 2.3190
 0.4460	 2.3240
 0.4470	 2.3360
 0.4480	 2.3530
 0.4490	 2.3580
 0.4500	 2.3630
 0.4510	 2.3730
 0.4520	 2.3890
 0.4530	 2.3920
 0.4540	 2.3970
 0.4550	 2.4050
 0.4560	 2.4130
 0.4570	 2.4250
 0.4580	 2.4300
 0.4590	 2.4260
 0.4600	 2.4270
 0.4610	 2.4290
 0.4620	 2.4300
 0.4630	 2.4320
 0.4640	 2.4400
 0.4650	 2.4460
 0.4660	 2.4480
 0.4670	 2.4540
 0.4680	 2.4560
 0.4690	 2.4520
 0.4700	 2.4480
 0.4710	 2.4490
 0.4720	 2.4590
 0.4730	 2.4670
 0.4740	 2.4640
 0.4750	 2.4710
 0.4760	 2.4760
 0.4770	 2.4740
 0.4780	 2.4820
 0.4790	 2.4890
 0.4800	 2.4920
 0.4810	 2.4930
 0.4820	 2.4980
 0.4830	 2.5010
 0.4840	 2.5050
 0.4850	 2.5180
 0.4860	 2.5200
 0.4870	 2.5260
 0.4880	 2.5470
 0.4890	 2.5550
 0.4900	 2.5600
 0.4910	 2.5680
 0.4920	 2.5800
 0.4930	 2.5940
 0.4940	 2.6110
 0.4950	 2.6280
 0.4960	 2.6460
 0.4970	 2.6700
 0.4980	 2.6960
 0.4990	 2.7200
 0.5000	 2.7440
 0.5010	 2.7750
 0.5020	 2.8140
 0.5030	 2.8530
 0.5040	 2.8970
 0.5050	 2.9480
 0.5060	 3.0050
 0.5070	 3.0610
 0.5080	 3.1230
 0.5090	 3.1940
 0.5100	 3.2720
 0.5110	 3.3580
 0.5120	 3.4500
 0.5130	 3.5460
 0.5140	 3.6520
 0.5150	 3.7690
 0.5160	 3.8930
 0.5170	 4.0210
 0.5180	 4.1570
 0.5190	 4.3000
 0.5200	 4.4480
 0.5210	 4.5990
 0.5220	 4.7550
 0.5230	 4.9130
 0.5240	 5.0690
 0.5250	 5.2220
 0.5260	 5.3740
 0.5270	 5.5190
 0.5280	 5.6520
 0.5290	 5.7810
 0.5300	 5.9000
 0.5310	 6.0100
 0.5320	 6.1130
 0.5330	 6.2080
 0.5340	 6.2940
 0.5350	 6.3690
 0.5360	 6.4350
 0.5370	 6.4990
 0.5380	 6.5590
 0.5390	 6.6140
 0.5400	 6.6800
 0.5410	 6.7560
 0.5420	 6.8320
 0.5430	 6.8880
 0.5440	 6.9250
 0.5450	 6.9440
 0.5460	 6.9470
 0.5470	 6.9330
 0.5480	 6.9210
 0.5490	 6.9210
 0.5500	 6.9290
 0.5510	 6.9350
 0.5520	 6.9330
 0.5530	 6.9190
 0.5540	 6.8990
 0.5550	 6.8690
 0.5560	 6.8290
 0.5570	 6.7810
 0.5580	 6.7280
 0.5590	 6.6700
 0.5600	 6.6070
 0.5610	 6.5370
 0.5620	 6.4620
 0.5630	 6.3820
 0.5640	 6.2950
 0.5650	 6.2080
 0.5660	 6.1190
 0.5670	 6.0260
 0.5680	 5.9300
 0.5690	 5.8330
 0.5700	 5.7350
 0.5710	 5.6360
 0.5720	 5.5450
 0.5730	 5.4570
 0.5740	 5.3720
 0.5750	 5.2920
 0.5760	 5.2200
 0.5770	 5.1520
 0.5780	 5.0870
 0.5790	 5.0280
 0.5800	 4.9720
 0.5810	 4.9210
 0.5820	 4.8760
 0.5830	 4.8350
 0.5840	 4.7940
 0.5850	 4.7540
 0.5860	 4.7160
 0.5870	 4.6820
 0.5880	 4.6500
 0.5890	 4.6140
 0.5900	 4.5810
 0.5910	 4.5550
 0.5920	 4.5340
 0.5930	 4.5140
 0.5940	 4.4930
 0.5950	 4.4730
 0.5960	 4.4550
 0.5970	 4.4420
 0.5980	 4.4290
 0.5990	 4.4160
 0.6000	 4.4020
 0.6010	 4.3850
 0.6020	 4.3650
 0.6030	 4.3440
 0.6040	 4.3210
 0.6050	 4.2930
 0.6060	 4.2610
 0.6070	 4.2280
 0.6080	 4.1940
 0.6090	 4.1660
 0.6100	 4.1500
 0.6110	 4.1410
 0.6120	 4.1050
 0.6130	 4.0480
 0.6140	 3.9880
 0.6150	 3.9440
 0.6160	 3.9030
 0.6170	 3.8630
 0.6180	 3.8290
 0.6190	 3.8010
 0.6200	 3.7780
 0.6210	 3.7570
 0.6220	 3.7330
 0.6230	 3.7180
 0.6240	 3.7050
 0.6250	 3.6920
 0.6260	 3.6830
 0.6270	 3.6750
 0.6280	 3.6690
 0.6290	 3.6680
 0.6300	 3.6650
 0.6310	 3.6590
 0.6320	 3.6490
 0.6330	 3.6380
 0.6340	 3.6230
 0.6350	 3.6030
 0.6360	 3.5800
 0.6370	 3.5550
 0.6380	 3.5240
 0.6390	 3.4890
 0.6400	 3.4560
 0.6410	 3.4200
 0.6420	 3.3810
 0.6430	 3.3410
 0.6440	 3.3040
 0.6450	 3.2660
 0.6460	 3.2290
 0.6470	 3.1970
 0.6480	 3.1700
 0.6490	 3.1470
 0.6500	 3.1280
 0.6510	 3.1090
 0.6520	 3.0960
 0.6530	 3.0860
 0.6540	 3.0740
 0.6550	 3.0610
 0.6560	 3.0480
 0.6570	 3.0310
 0.6580	 3.0100
 0.6590	 2.9900
 0.6600	 2.9690
 0.6610	 2.9470
 0.6620	 2.9260
 0.6630	 2.9050
 0.6640	 2.8860
 0.6650	 2.8700
 0.6660	 2.8580
 0.6670	 2.8510
 0.6680	 2.8470
 0.6690	 2.8420
 0.6700	 2.8460
 0.6710	 2.8530
 0.6720	 2.8610
 0.6730	 2.8720
 0.6740	 2.8910
 0.6750	 2.9130
 0.6760	 2.9350
 0.6770	 2.9610
 0.6780	 2.9910
 0.6790	 3.0240
 0.6800	 3.0620
 0.6810	 3.1030
 0.6820	 3.1480
 0.6830	 3.1950
 0.6840	 3.2470
 0.6850	 3.3050
 0.6860	 3.3710
 0.6870	 3.4460
 0.6880	 3.5350
 0.6890	 3.6400
 0.6900	 3.7690
 0.6910	 3.9280
 0.6920	 4.1210
 0.6930	 4.3490
 0.6940	 4.6150
 0.6950	 4.9240
 0.6960	 5.2770
 0.6970	 5.6700
 0.6980	 6.1000
 0.6990	 6.5660
 0.7000	 7.0640
 0.7010	 7.5890
 0.7020	 8.1370
 0.7030	 8.7030
 0.7040	 9.2850
 0.7050	 9.8790
 0.7060	10.4830
 0.7070	11.0990
 0.7080	11.7230
 0.7090	12.3550
 0.7100	12.9960
 0.7110	13.6490
 0.7120	14.3130
 0.7130	14.9810
 0.7140	15.6570
 0.7150	16.3400
 0.7160	17.0280
 0.7170	17.7230
 0.7180	18.4200
 0.7190	19.1170
 0.7200	19.8120
 0.7210	20.5020
 0.7220	21.1850
 0.7230	21.8560
 0.7240	22.5170
 0.7250	23.1630
 0.7260	23.7940
 0.7270	24.4080
 0.7280	24.9980
 0.7290	25.5680
 0.7300	26.1170
 0.7310	26.6410
 0.7320	27.1420
 0.7330	27.6210
 0.7340	28.0730
 0.7350	28.4970
 0.7360	28.9010
 0.7370	29.2820
 0.7380	29.6380
 0.7390	29.9680
 0.7400	30.2760
 0.7410	30.5630
 0.7420	30.8290
 0.7430	31.0730
 0.7440	31.2960
 0.7450	31.5010
 0.7460	31.6860
 0.7470	31.8550
 0.7480	32.0090
 0.7490	32.1470
 0.7500	32.2680
 0.7510	32.3800
 0.7520	32.4820
 0.7530	32.5730
 0.7540	32.6550
 0.7550	32.7310
 0.7560	32.8000
 0.7570	32.8600
 0.7580	32.9120
 0.7590	32.9600
 0.7600	33.0050
 0.7610	33.0460
 0.7620	33.0800
 0.7630	33.1080
 0.7640	33.1360
 0.7650	33.1610
 0.7660	33.1830
 0.7670	33.1990
 0.7680	33.2150
 0.7690	33.2300
 0.7700	33.2410
 0.7710	33.2500
 0.7720	33.2610
 0.7730	33.2720
 0.7740	33.2820
 0.7750	33.2920
 0.7760	33.3020
 0.7770	33.3100
 0.7780	33.3160
 0.7790	33.3240
 0.7800	33.3310
 0.7810	33.3390
 0.7820	33.3470
 0.7830	33.3520
 0.7840	33.3600
 0.7850	33.3660
 0.7860	33.3710
 0.7870	33.3790
 0.7880	33.3860
 0.7890	33.3900
 0.7900	33.3930
 0.7910	33.3970
 0.7920	33.3980
 0.7930	33.3990
 0.7940	33.4030
 0.7950	33.4030
 0.7960	33.4030
 0.7970	33.4040
 0.7980	33.4030
 0.7990	33.4040
 0.8000	33.4030
 0.8010	33.4000
 0.8020	33.3990
 0.8030	33.3970
 0.8040	33.3940
 0.8050	33.3890
 0.8060	33.3880
 0.8070	33.3840
 0.8080	33.3780
 0.8090	33.3750
 0.8100	33.3720
 0.8110	33.3670
 0.8120	33.3620
 0.8130	33.3530
 0.8140	33.3430
 0.8150	33.3340
 0.8160	33.3290
 0.8170	33.3230
 0.8180	33.3170
 0.8190	33.3080
 0.8200	33.2990
 0.8210	33.2920
 0.8220	33.2860
 0.8230	33.2800
 0.8240	33.2700
 0.8250	33.2620
 0.8260	33.2540
 0.8270	33.2450
 0.8280	33.2340
 0.8290	33.2270
 0.8300	33.2190
 0.8310	33.2090
 0.8320	33.2010
 0.8330	33.1940
 0.8340	33.1880
 0.8350	33.1810
 0.8360	33.1750
 0.8370	33.1670
 0.8380	33.1600
 0.8390	33.1530
 0.8400	33.1460
 0.8410	33.1420
 0.8420	33.1400
 0.8430	33.1350
 0.8440	33.1300
 0.8450	33.1250
 0.8460	33.1200
 0.8470	33.1230
 0.8480	33.1200
 0.8490	33.1140
 0.8500	33.1130
 0.8510	33.1100
 0.8520	33.1100
 0.8530	33.1110
 0.8540	33.1090
 0.8550	33.1070
 0.8560	33.1070
 0.8570	33.1080
 0.8580	33.1100
 0.8590	33.1110
 0.8600	33.1110
 0.8610	33.1120
 0.8620	33.1190
 0.8630	33.1200
 0.8640	33.1200
 0.8650	33.1270
 0.8660	33.1270
 0.8670	33.1310
 0.8680	33.1380
 0.8690	33.1420
 0.8700	33.1460
 0.8710	33.1510
 0.8720	33.1590
 0.8730	33.1650
 0.8740	33.1710
 0.8750	33.1770
 0.8760	33.1850
 0.8770	33.1950
 0.8780	33.2010
 0.8790	33.2070
 0.8800	33.2150
 0.8810	33.2220
 0.8820	33.2250
 0.8830	33.2300
 0.8840	33.2390
 0.8850	33.2480
 0.8860	33.2570
 0.8870	33.2640
 0.8880	33.2670
 0.8890	33.2760
 0.8900	33.2860
 0.8910	33.2930
 0.8920	33.3010
 0.8930	33.3080
 0.8940	33.3150
 0.8950	33.3230
 0.8960	33.3300
 0.8970	33.3330
 0.8980	33.3380
 0.8990	33.3440
 0.9000	33.3470
 0.9010	33.3550
 0.9020	33.3650
 0.9030	33.3730
 0.9040	33.3810
 0.9050	33.3890
 0.9060	33.3960
 0.9070	33.3990
 0.9080	33.3990
 0.9090	33.4050
 0.9100	33.4140
 0.9110	33.4210
 0.9120	33.4220
 0.9130	33.4220
 0.9140	33.4250
 0.9150	33.4300
 0.9160	33.4320
 0.9170	33.4330
 0.9180	33.4350
 0.9190	33.4390
 0.9200	33.4390
 0.9210	33.4410
 0.9220	33.4470
 0.9230	33.4530
 0.9240	33.4460
 0.9250	33.4450
 0.9260	33.4490
 0.9270	33.4410
 0.9280	33.4350
 0.9290	33.4310
 0.9300	33.4260
 0.9310	33.4210
 0.9320	33.4190
 0.9330	33.4140
 0.9340	33.4060
 0.9350	33.3960
 0.9360	33.3930
 0.9370	33.3890
 0.9380	33.3790
 0.9390	33.3680
 0.9400	33.3540
 0.9410	33.3440
 0.9420	33.3380
 0.9430	33.3330
 0.9440	33.3190
 0.9450	33.3010
 0.9460	33.2870
 0.9470	33.2750
 0.9480	33.2580
 0.9490	33.2390
 0.9500	33.2190
 0.9510	33.1960
 0.9520	33.1760
 0.9530	33.1540
 0.9540	33.1280
 0.9550	33.1110
 0.9560	33.0920
 0.9570	33.0670
 0.9580	33.0400
 0.9590	33.0290
 0.9600	33.0150
 0.9610	32.9950
 0.9620	32.9720
 0.9630	32.9590
 0.9640	32.9410
 0.9650	32.9270
 0.9660	32.9230
 0.9670	32.9030
 0.9680	32.8910
 0.9690	32.8850
 0.9700	32.8720
 0.9710	32.8600
 0.9720	32.8570
 0.9730	32.8570
 0.9740	32.8450
 0.9750	32.8280
 0.9760	32.8150
 0.9770	32.8120
 0.9780	32.8140
 0.9790	32.8110
 0.9800	32.8050
 0.9810	32.7990
 0.9820	32.7950
 0.9830	32.7980
 0.9840	32.8030
 0.9850	32.8020
 0.9860	32.7940
 0.9870	32.7870
 0.9880	32.7820
 0.9890	32.7820
 0.9900	32.7880
 0.9910	32.7900
 0.9920	32.7910
 0.9930	32.7920
 0.9940	32.7950
 0.9950	32.7930
 0.9960	32.8010
 0.9970	32.8110
 0.9980	32.8060
 0.9990	32.8060
 1.0000	32.8150
 1.0010	33.1960
 1.0020	33.2030
 1.0030	33.2100
 1.0040	33.2150
 1.0050	33.2180
 1.0060	33.2190
 1.0070	33.2230
 1.0080	33.2270
 1.0090	33.2340
 1.0100	33.2400
 1.0110	33.2440
 1.0120	33.2490
 1.0130	33.2560
 1.0140	33.2600
 1.0150	33.2630
 1.0160	33.2680
 1.0170	33.2720
 1.0180	33.2730
 1.0190	33.2780
 1.0200	33.2800
 1.0210	33.2820
 1.0220	33.2860
 1.0230	33.2900
 1.0240	33.2940
 1.0250	33.3010
 1.0260	33.3120
 1.0270	33.3190
 1.0280	33.3230
 1.0290	33.3290
 1.0300	33.3320
 1.0310	33.3350
 1.0320	33.3410
 1.0330	33.3460
 1.0340	33.3480
 1.0350	33.3530
 1.0360	33.3590
 1.0370	33.3650
 1.0380	33.3710
 1.0390	33.3800
 1.0400	33.3850
 1.0410	33.3890
 1.0420	33.3940
 1.0430	33.3970
 1.0440	33.4010
 1.0450	33.4070
 1.0460	33.4120
 1.0470	33.4160
 1.0480	33.4210
 1.0490	33.4270
 1.0500	33.4310
 1.0510	33.4350
 1.0520	33.4370
 1.0530	33.4400
 1.0540	33.4400
 1.0550	33.4430
 1.0560	33.4480
 1.0570	33.4500
 1.0580	33.4480
 1.0590	33.4500
 1.0600	33.4540
 1.0610	33.4560
 1.0620	33.4570
 1.0630	33.4590
 1.0640	33.4580
 1.0650	33.4590
 1.0660	33.4640
 1.0670	33.4660
 1.0680	33.4680
 1.0690	33.4680
 1.0700	33.4690
 1.0710	33.4710
 1.0720	33.4710
 1.0730	33.4710
 1.0740	33.4720
 1.0750	33.4710
 1.0760	33.4720
 1.0770	33.4750
 1.0780	33.4740
 1.0790	33.4710
 1.0800	33.4700
 1.0810	33.4680
 1.0820	33.4650
 1.0830	33.4620
 1.0840	33.4610
 1.0850	33.4590
 1.0860	33.4560
 1.0870	33.4560
 1.0880	33.4590
 1.0890	33.4590
 1.0900	33.4600
 1.0910	33.4570
 1.0920	33.4520
 1.0930	33.4490
 1.0940	33.4450
 1.0950	33.4430
 1.0960	33.4430
 1.0970	33.4410
 1.0980	33.4370
 1.0990	33.4340
 1.1000	33.4300
 1.1010	33.4260
 1.1020	33.4220
 1.1030	33.4190
 1.1040	33.4130
 1.1050	33.4090
 1.1060	33.4070
 1.1070	33.4060
 1.1080	33.4030
 1.1090	33.4020
 1.1100	33.3970
 1.1110	33.3900
 1.1120	33.3840
 1.1130	33.3790
 1.1140	33.3730
 1.1150	33.3650
 1.1160	33.3590
 1.1170	33.3530
 1.1180	33.3460
 1.1190	33.3380
 1.1200	33.3300
 1.1210	33.3180
 1.1220	33.3020
 1.1230	33.2880
 1.1240	33.2720
 1.1250	33.2550
 1.1260	33.2360
 1.1270	33.2150
 1.1280	33.1900
 1.1290	33.1640
 1.1300	33.1360
 1.1310	33.1030
 1.1320	33.0660
 1.1330	33.0290
 1.1340	32.9880
 1.1350	32.9470
 1.1360	32.9050
 1.1370	32.8600
 1.1380	32.8130
 1.1390	32.7640
 1.1400	32.7130
 1.1410	32.6620
 1.1420	32.6090
 1.1430	32.5570
 1.1440	32.5040
 1.1450	32.4500
 1.1460	32.3980
 1.1470	32.3460
 1.1480	32.2960
 1.1490	32.2460
 1.1500	32.1990
 1.1510	32.1520
 1.1520	32.1080
 1.1530	32.0670
 1.1540	32.0270
 1.1550	31.9870
 1.1560	31.9500
 1.1570	31.9140
 1.1580	31.8810
 1.1590	31.8490
 1.1600	31.8190
 1.1610	31.7900
 1.1620	31.7640
 1.1630	31.7400
 1.1640	31.7190
 1.1650	31.6980
 1.1660	31.6790
 1.1670	31.6600
 1.1680	31.6410
 1.1690	31.6240
 1.1700	31.6070
 1.1710	31.5910
 1.1720	31.5780
 1.1730	31.5640
 1.1740	31.5500
 1.1750	31.5380
 1.1760	31.5240
 1.1770	31.5110
 1.1780	31.4970
 1.1790	31.4810
 1.1800	31.4670
 1.1810	31.4550
 1.1820	31.4420
 1.1830	31.4290
 1.1840	31.4150
 1.1850	31.4010
 1.1860	31.3860
 1.1870	31.3720
 1.1880	31.3610
 1.1890	31.3520
 1.1900	31.3430
 1.1910	31.3370
 1.1920	31.3290
 1.1930	31.3200
 1.1940	31.3140
 1.1950	31.3080
 1.1960	31.3030
 1.1970	31.3000
 1.1980	31.2970
 1.1990	31.2940
 1.2000	31.2920
 1.2010	31.2920
 1.2020	31.2920
 1.2030	31.2920
 1.2040	31.2950
 1.2050	31.2980
 1.2060	31.3020
 1.2070	31.3070
 1.2080	31.3120
 1.2090	31.3200
 1.2100	31.3300
 1.2110	31.3380
 1.2120	31.3500
 1.2130	31.3600
 1.2140	31.3690
 1.2150	31.3790
 1.2160	31.3900
 1.2170	31.4010
 1.2180	31.4120
 1.2190	31.4250
 1.2200	31.4390
 1.2210	31.4530
 1.2220	31.4660
 1.2230	31.4800
 1.2240	31.4940
 1.2250	31.5070
 1.2260	31.5200
 1.2270	31.5330
 1.2280	31.5470
 1.2290	31.5600
 1.2300	31.5700
 1.2310	31.5800
 1.2320	31.5880
 1.2330	31.5960
 1.2340	31.6040
 1.2350	31.6140
 1.2360	31.6230
 1.2370	31.6310
 1.2380	31.6390
 1.2390	31.6480
 1.2400	31.6570
 1.2410	31.6660
 1.2420	31.6720
 1.2430	31.6780
 1.2440	31.6850
 1.2450	31.6910
 1.2460	31.6960
 1.2470	31.7020
 1.2480	31.7050
 1.2490	31.7100
 1.2500	31.7150
 1.2510	31.7190
 1.2520	31.7230
 1.2530	31.7250
 1.2540	31.7270
 1.2550	31.7290
 1.2560	31.7290
 1.2570	31.7310
 1.2580	31.7350
 1.2590	31.7370
 1.2600	31.7390
 1.2610	31.7400
 1.2620	31.7410
 1.2630	31.7410
 1.2640	31.7400
 1.2650	31.7390
 1.2660	31.7360
 1.2670	31.7340
 1.2680	31.7320
 1.2690	31.7300
 1.2700	31.7290
 1.2710	31.7250
 1.2720	31.7200
 1.2730	31.7140
 1.2740	31.7090
 1.2750	31.7040
 1.2760	31.7000
 1.2770	31.6960
 1.2780	31.6910
 1.2790	31.6830
 1.2800	31.6750
 1.2810	31.6680
 1.2820	31.6620
 1.2830	31.6560
 1.2840	31.6490
 1.2850	31.6400
 1.2860	31.6280
 1.2870	31.6170
 1.2880	31.6050
 1.2890	31.5930
 1.2900	31.5810
 1.2910	31.5660
 1.2920	31.5520
 1.2930	31.5350
 1.2940	31.5170
 1.2950	31.4990
 1.2960	31.4780
 1.2970	31.4570
 1.2980	31.4370
 1.2990	31.4140
 1.3000	31.3910
 1.3010	31.3660
 1.3020	31.3420
 1.3030	31.3170
 1.3040	31.2900
 1.3050	31.2620
 1.3060	31.2320
 1.3070	31.2000
 1.3080	31.1690
 1.3090	31.1380
 1.3100	31.1050
 1.3110	31.0720
 1.3120	31.0370
 1.3130	30.9990
 1.3140	30.9610
 1.3150	30.9200
 1.3160	30.8800
 1.3170	30.8410
 1.3180	30.8010
 1.3190	30.7590
 1.3200	30.7160
 1.3210	30.6690
 1.3220	30.6210
 1.3230	30.5730
 1.3240	30.5230
 1.3250	30.4730
 1.3260	30.4220
 1.3270	30.3690
 1.3280	30.3160
 1.3290	30.2610
 1.3300	30.2030
 1.3310	30.1460
 1.3320	30.0870
 1.3330	30.0270
 1.3340	29.9680
 1.3350	29.9080
 1.3360	29.8480
 1.3370	29.7890
 1.3380	29.7290
 1.3390	29.6680
 1.3400	29.6070
 1.3410	29.5470
 1.3420	29.4860
 1.3430	29.4260
 1.3440	29.3670
 1.3450	29.3080
 1.3460	29.2480
 1.3470	29.1900
 1.3480	29.1310
 1.3490	29.0730
 1.3500	29.0150
 1.3510	28.9580
 1.3520	28.8990
 1.3530	28.8410
 1.3540	28.7840
 1.3550	28.7250
 1.3560	28.6670
 1.3570	28.6090
 1.3580	28.5490
 1.3590	28.4890
 1.3600	28.4270
 1.3610	28.3630
 1.3620	28.3000
 1.3630	28.2340
 1.3640	28.1670
 1.3650	28.0970
 1.3660	28.0240
 1.3670	27.9480
 1.3680	27.8660
 1.3690	27.7790
 1.3700	27.6840
 1.3710	27.5820
 1.3720	27.4730
 1.3730	27.3550
 1.3740	27.2310
 1.3750	27.0980
 1.3760	26.9520
 1.3770	26.7950
 1.3780	26.6240
 1.3790	26.4390
 1.3800	26.2420
 1.3810	26.0310
 1.3820	25.8060
 1.3830	25.5680
 1.3840	25.3180
 1.3850	25.0550
 1.3860	24.7790
 1.3870	24.4890
 1.3880	24.1900
 1.3890	23.8790
 1.3900	23.5570
 1.3910	23.2310
 1.3920	22.8970
 1.3930	22.5530
 1.3940	22.2070
 1.3950	21.8550
 1.3960	21.5010
 1.3970	21.1510
 1.3980	20.8020
 1.3990	20.4580
 1.4000	20.1190
 1.4010	19.7830
 1.4020	19.4550
 1.4030	19.1330
 1.4040	18.8210
 1.4050	18.5210
 1.4060	18.2290
 1.4070	17.9510
 1.4080	17.6840
 1.4090	17.4260
 1.4100	17.1820
 1.4110	16.9480
 1.4120	16.7250
 1.4130	16.5150
 1.4140	16.3160
 1.4150	16.1310
 1.4160	15.9560
 1.4170	15.7890
 1.4180	15.6320
 1.4190	15.4840
 1.4200	15.3440
 1.4210	15.2150
 1.4220	15.0920
 1.4230	14.9780
 1.4240	14.8730
 1.4250	14.7730
 1.4260	14.6800
 1.4270	14.5930
 1.4280	14.5120
 1.4290	14.4370
 1.4300	14.3680
 1.4310	14.3050
 1.4320	14.2480
 1.4330	14.1940
 1.4340	14.1440
 1.4350	14.1000
 1.4360	14.0620
 1.4370	14.0270
 1.4380	13.9960
 1.4390	13.9690
 1.4400	13.9440
 1.4410	13.9220
 1.4420	13.9040
 1.4430	13.8900
 1.4440	13.8770
 1.4450	13.8670
 1.4460	13.8600
 1.4470	13.8550
 1.4480	13.8520
 1.4490	13.8510
 1.4500	13.8520
 1.4510	13.8530
 1.4520	13.8560
 1.4530	13.8610
 1.4540	13.8670
 1.4550	13.8760
 1.4560	13.8850
 1.4570	13.8960
 1.4580	13.9100
 1.4590	13.9270
 1.4600	13.9480
 1.4610	13.9720
 1.4620	13.9980
 1.4630	14.0270
 1.4640	14.0590
 1.4650	14.0940
 1.4660	14.1330
 1.4670	14.1750
 1.4680	14.2220
 1.4690	14.2730
 1.4700	14.3260
 1.4710	14.3830
 1.4720	14.4430
 1.4730	14.5040
 1.4740	14.5690
 1.4750	14.6360
 1.4760	14.7050
 1.4770	14.7760
 1.4780	14.8480
 1.4790	14.9240
 1.4800	15.0000
 1.4810	15.0780
 1.4820	15.1570
 1.4830	15.2360
 1.4840	15.3170
 1.4850	15.3980
 1.4860	15.4790
 1.4870	15.5610
 1.4880	15.6440
 1.4890	15.7270
 1.4900	15.8110
 1.4910	15.8960
 1.4920	15.9810
 1.4930	16.0660
 1.4940	16.1520
 1.4950	16.2380
 1.4960	16.3250
 1.4970	16.4110
 1.4980	16.4980
 1.4990	16.5850
 1.5000	16.6710
 1.5010	16.7570
 1.5020	16.8430
 1.5030	16.9290
 1.5040	17.0150
 1.5050	17.1020
 1.5060	17.1880
 1.5070	17.2740
 1.5080	17.3590
 1.5090	17.4430
 1.5100	17.5280
 1.5110	17.6120
 1.5120	17.6960
 1.5130	17.7780
 1.5140	17.8600
 1.5150	17.9430
 1.5160	18.0240
 1.5170	18.1050
 1.5180	18.1860
 1.5190	18.2640
 1.5200	18.3430
 1.5210	18.4230
 1.5220	18.5010
 1.5230	18.5790
 1.5240	18.6550
 1.5250	18.7310
 1.5260	18.8050
 1.5270	18.8780
 1.5280	18.9510
 1.5290	19.0220
 1.5300	19.0930
 1.5310	19.1650
 1.5320	19.2350
 1.5330	19.3050
 1.5340	19.3730
 1.5350	19.4420
 1.5360	19.5110
 1.5370	19.5770
 1.5380	19.6420
 1.5390	19.7050
 1.5400	19.7680
 1.5410	19.8310
 1.5420	19.8950
 1.5430	19.9580
 1.5440	20.0190
 1.5450	20.0810
 1.5460	20.1420
 1.5470	20.2030
 1.5480	20.2640
 1.5490	20.3250
 1.5500	20.3830
 1.5510	20.4420
 1.5520	20.5010
 1.5530	20.5570
 1.5540	20.6130
 1.5550	20.6680
 1.5560	20.7210
 1.5570	20.7750
 1.5580	20.8290
 1.5590	20.8820
 1.5600	20.9350
 1.5610	20.9860
 1.5620	21.0370
 1.5630	21.0870
 1.5640	21.1360
 1.5650	21.1840
 1.5660	21.2330
 1.5670	21.2810
 1.5680	21.3300
 1.5690	21.3780
 1.5700	21.4250
 1.5710	21.4700
 1.5720	21.5150
 1.5730	21.5600
 1.5740	21.6070
 1.5750	21.6520
 1.5760	21.6980
 1.5770	21.7430
 1.5780	21.7870
 1.5790	21.8310
 1.5800	21.8760
 1.5810	21.9210
 1.5820	21.9650
 1.5830	22.0090
 1.5840	22.0510
 1.5850	22.0930
 1.5860	22.1350
 1.5870	22.1780
 1.5880	22.2210
 1.5890	22.2630
 1.5900	22.3040
 1.5910	22.3450
 1.5920	22.3860
 1.5930	22.4270
 1.5940	22.4700
 1.5950	22.5130
 1.5960	22.5530
 1.5970	22.5920
 1.5980	22.6300
 1.5990	22.6680
 1.6000	22.7060
 1.6010	22.7440
 1.6020	22.7790
 1.6030	22.8160
 1.6040	22.8520
 1.6050	22.8870
 1.6060	22.9250
 1.6070	22.9620
 1.6080	22.9970
 1.6090	23.0320
 1.6100	23.0660
 1.6110	23.0990
 1.6120	23.1290
 1.6130	23.1610
 1.6140	23.1910
 1.6150	23.2220
 1.6160	23.2530
 1.6170	23.2800
 1.6180	23.3080
 1.6190	23.3350
 1.6200	23.3610
 1.6210	23.3880
 1.6220	23.4140
 1.6230	23.4400
 1.6240	23.4650
 1.6250	23.4880
 1.6260	23.5120
 1.6270	23.5360
 1.6280	23.5580
 1.6290	23.5820
 1.6300	23.6060
 1.6310	23.6280
 1.6320	23.6500
 1.6330	23.6700
 1.6340	23.6890
 1.6350	23.7080
 1.6360	23.7260
 1.6370	23.7440
 1.6380	23.7620
 1.6390	23.7790
 1.6400	23.7970
 1.6410	23.8110
 1.6420	23.8250
 1.6430	23.8360
 1.6440	23.8430
 1.6450	23.8510
 1.6460	23.8570
 1.6470	23.8630
 1.6480	23.8690
 1.6490	23.8730
 1.6500	23.8750
 1.6510	23.8740
 1.6520	23.8710
 1.6530	23.8650
 1.6540	23.8590
 1.6550	23.8510
 1.6560	23.8410
 1.6570	23.8270
 1.6580	23.8100
 1.6590	23.7890
 1.6600	23.7670
 1.6610	23.7440
 1.6620	23.7180
 1.6630	23.6920
 1.6640	23.6630
 1.6650	23.6340
 1.6660	23.6050
 1.6670	23.5750
 1.6680	23.5460
 1.6690	23.5200
 1.6700	23.4930
 1.6710	23.4660
 1.6720	23.4430
 1.6730	23.4200
 1.6740	23.3960
 1.6750	23.3750
 1.6760	23.3530
 1.6770	23.3320
 1.6780	23.3140
 1.6790	23.2980
 1.6800	23.2810
 1.6810	23.2650
 1.6820	23.2490
 1.6830	23.2340
 1.6840	23.2190
 1.6850	23.2020
 1.6860	23.1820
 1.6870	23.1590
 1.6880	23.1380
 1.6890	23.1190
 1.6900	23.0970
 1.6910	23.0760
 1.6920	23.0530
 1.6930	23.0270
 1.6940	23.0030
 1.6950	22.9780
 1.6960	22.9540
 1.6970	22.9310
 1.6980	22.9080
 1.6990	22.8840
 1.7000	22.8590
 1.7010	22.8320
 1.7020	22.8060
 1.7030	22.7810
 1.7040	22.7520
 1.7050	22.7220
 1.7060	22.6910
 1.7070	22.6570
 1.7080	22.6240
 1.7090	22.5910
 1.7100	22.5570
 1.7110	22.5220
 1.7120	22.4870
 1.7130	22.4520
 1.7140	22.4150
 1.7150	22.3800
 1.7160	22.3470
 1.7170	22.3130
 1.7180	22.2810
 1.7190	22.2510
 1.7200	22.2220
 1.7210	22.1940
 1.7220	22.1650
 1.7230	22.1370
 1.7240	22.1110
 1.7250	22.0860
 1.7260	22.0630
 1.7270	22.0420
 1.7280	22.0210
 1.7290	22.0020
 1.7300	21.9860
 1.7310	21.9700
 1.7320	21.9550
 1.7330	21.9420
 1.7340	21.9300
 1.7350	21.9180
 1.7360	21.9090
 1.7370	21.8960
 1.7380	21.8830
 1.7390	21.8660
 1.7400	21.8440
 1.7410	21.8240
 1.7420	21.8020
 1.7430	21.7790
 1.7440	21.7550
 1.7450	21.7300
 1.7460	21.7020
 1.7470	21.6740
 1.7480	21.6450
 1.7490	21.6160
 1.7500	21.5870
 1.7510	21.5570
 1.7520	21.5270
 1.7530	21.4960
 1.7540	21.4630
 1.7550	21.4330
 1.7560	21.4030
 1.7570	21.3760
 1.7580	21.3510
 1.7590	21.3270
 1.7600	21.3040
 1.7610	21.2790
 1.7620	21.2560
 1.7630	21.2330
 1.7640	21.2140
 1.7650	21.1990
 1.7660	21.1830
 1.7670	21.1670
 1.7680	21.1520
 1.7690	21.1360
 1.7700	21.1220
 1.7710	21.1100
 1.7720	21.0980
 1.7730	21.0860
 1.7740	21.0750
 1.7750	21.0650
 1.7760	21.0540
 1.7770	21.0420
 1.7780	21.0330
 1.7790	21.0220
 1.7800	21.0150
 1.7810	21.0110
 1.7820	21.0060
 1.7830	21.0010
 1.7840	20.9970
 1.7850	20.9930
 1.7860	20.9910
 1.7870	20.9890
 1.7880	20.9930
 1.7890	20.9960
 1.7900	20.9990
 1.7910	21.0030
 1.7920	21.0060
 1.7930	21.0090
 1.7940	21.0140
 1.7950	21.0200
 1.7960	21.0270
 1.7970	21.0350
 1.7980	21.0470
 1.7990	21.0560
 1.8000	21.0630
 1.8010	21.0720
 1.8020	21.0820
 1.8030	21.0920
 1.8040	21.1030
 1.8050	21.1130
 1.8060	21.1220
 1.8070	21.1300
 1.8080	21.1360
 1.8090	21.1460
 1.8100	21.1570
 1.8110	21.1690
 1.8120	21.1810
 1.8130	21.1890
 1.8140	21.1990
 1.8150	21.2070
 1.8160	21.2140
 1.8170	21.2190
 1.8180	21.2230
 1.8190	21.2290
 1.8200	21.2340
 1.8210	21.2420
 1.8220	21.2480
 1.8230	21.2520
 1.8240	21.2550
 1.8250	21.2590
 1.8260	21.2610
 1.8270	21.2630
 1.8280	21.2630
 1.8290	21.2610
 1.8300	21.2580
 1.8310	21.3020
 1.8320	21.2930
 1.8330	21.2860
 1.8340	21.2770
 1.8350	21.2650
 1.8360	21.2500
 1.8370	21.2300
 1.8380	21.2090
 1.8390	21.1850
 1.8400	21.1580
 1.8410	21.1280
 1.8420	21.0970
 1.8430	21.0590
 1.8440	21.0190
 1.8450	20.9750
 1.8460	20.9250
 1.8470	20.8720
 1.8480	20.8130
 1.8490	20.7450
 1.8500	20.6710
 1.8510	20.5910
 1.8520	20.5030
 1.8530	20.4030
 1.8540	20.3010
 1.8550	20.1890
 1.8560	20.0680
 1.8570	19.9420
 1.8580	19.8040
 1.8590	19.6550
 1.8600	19.4950
 1.8610	19.3260
 1.8620	19.1400
 1.8630	18.9440
 1.8640	18.7370
 1.8650	18.5160
 1.8660	18.2840
 1.8670	18.0330
 1.8680	17.7670
 1.8690	17.4870
 1.8700	17.1910
 1.8710	16.8770
 1.8720	16.5580
 1.8730	16.2220
 1.8740	15.8750
 1.8750	15.5190
 1.8760	15.1450
 1.8770	14.7650
 1.8780	14.3750
 1.8790	13.9730
 1.8800	13.5720
 1.8810	13.1680
 1.8820	12.7580
 1.8830	12.3460
 1.8840	11.9340
 1.8850	11.5170
 1.8860	11.1060
 1.8870	10.6920
 1.8880	10.2750
 1.8890	 9.8720
 1.8900	 9.4790
 1.8910	 9.0980
 1.8920	 8.7240
 1.8930	 8.3720
 1.8940	 8.0320
 1.8950	 7.7010
 1.8960	 7.3900
 1.8970	 7.0970
 1.8980	 6.8230
 1.8990	 6.5650
 1.9000	 6.3230
 1.9010	 6.0990
 1.9020	 5.8880
 1.9030	 5.6920
 1.9040	 5.5170
 1.9050	 5.3590
 1.9060	 5.2110
 1.9070	 5.0780
 1.9080	 4.9560
 1.9090	 4.8420
 1.9100	 4.7410
 1.9110	 4.6480
 1.9120	 4.5680
 1.9130	 4.4920
 1.9140	 4.4210
 1.9150	 4.3600
 1.9160	 4.3060
 1.9170	 4.2540
 1.9180	 4.2100
 1.9190	 4.1700
 1.9200	 4.1370
 1.9210	 4.1080
 1.9220	 4.0810
 1.9230	 4.0600
 1.9240	 4.0400
 1.9250	 4.0200
 1.9260	 4.0050
 1.9270	 3.9970
 1.9280	 3.9920
 1.9290	 3.9920
 1.9300	 3.9950
 1.9310	 3.9960
 1.9320	 3.9970
 1.9330	 4.0030
 1.9340	 4.0120
 1.9350	 4.0230
 1.9360	 4.0350
 1.9370	 4.0520
 1.9380	 4.0710
 1.9390	 4.0890
 1.9400	 4.1120
 1.9410	 4.1360
 1.9420	 4.1610
 1.9430	 4.1870
 1.9440	 4.2150
 1.9450	 4.2440
 1.9460	 4.2750
 1.9470	 4.3060
 1.9480	 4.3400
 1.9490	 4.3760
 1.9500	 4.4140
 1.9510	 4.4500
 1.9520	 4.4900
 1.9530	 4.5280
 1.9540	 4.5640
 1.9550	 4.6060
 1.9560	 4.6490
 1.9570	 4.6940
 1.9580	 4.7450
 1.9590	 4.7910
 1.9600	 4.8350
 1.9610	 4.8840
 1.9620	 4.9350
 1.9630	 4.9840
 1.9640	 5.0390
 1.9650	 5.0900
 1.9660	 5.1370
 1.9670	 5.1860
 1.9680	 5.2370
 1.9690	 5.2890
 1.9700	 5.3420
 1.9710	 5.3980
 1.9720	 5.4540
 1.9730	 5.5110
 1.9740	 5.5670
 1.9750	 5.6210
 1.9760	 5.6790
 1.9770	 5.7390
 1.9780	 5.7980
 1.9790	 5.8590
 1.9800	 5.9260
 1.9810	 5.9880
 1.9820	 6.0480
 1.9830	 6.1090
 1.9840	 6.1700
 1.9850	 6.2320
 1.9860	 6.2960
 1.9870	 6.3590
 1.9880	 6.4220
 1.9890	 6.4880
 1.9900	 6.5520
 1.9910	 6.6180
 1.9920	 6.6830
 1.9930	 6.7490
 1.9940	 6.8140
 1.9950	 6.8820
 1.9960	 6.9470
 1.9970	 7.0090
 1.9980	 7.0740
 1.9990	 7.1390
 2.0000	 7.2030
 2.0010	 7.2650
 2.0020	 7.3310
 2.0030	 7.3960
 2.0040	 7.4560
 2.0050	 7.5200
 2.0060	 7.5890
 2.0070	 7.6530
 2.0080	 7.7180
 2.0090	 7.7800
 2.0100	 7.8380
 2.0110	 7.8990
 2.0120	 7.9600
 2.0130	 8.0200
 2.0140	 8.0790
 2.0150	 8.1350
 2.0160	 8.1930
 2.0170	 8.2490
 2.0180	 8.3050
 2.0190	 8.3630
 2.0200	 8.4160
 2.0210	 8.4640
 2.0220	 8.5150
 2.0230	 8.5670
 2.0240	 8.6150
 2.0250	 8.6620
 2.0260	 8.7090
 2.0270	 8.7540
 2.0280	 8.8000
 2.0290	 8.8490
 2.0300	 8.8930
 2.0310	 8.9380
 2.0320	 8.9820
 2.0330	 9.0230
 2.0340	 9.0640
 2.0350	 9.1030
 2.0360	 9.1410
 2.0370	 9.1770
 2.0380	 9.2130
 2.0390	 9.2490
 2.0400	 9.2840
 2.0410	 9.3190
 2.0420	 9.3520
 2.0430	 9.3860
 2.0440	 9.4200
 2.0450	 9.4540
 2.0460	 9.4860
 2.0470	 9.5180
 2.0480	 9.5490
 2.0490	 9.5790
 2.0500	 9.6100
 2.0510	 9.6430
 2.0520	 9.6750
 2.0530	 9.7090
 2.0540	 9.7390
 2.0550	 9.7670
 2.0560	 9.7970
 2.0570	 9.8280
 2.0580	 9.8580
 2.0590	 9.8920
 2.0600	 9.9300
 2.0610	 9.9660
 2.0620	10.0020
 2.0630	10.0380
 2.0640	10.0770
 2.0650	10.1140
 2.0660	10.1510
 2.0670	10.1870
 2.0680	10.2230
 2.0690	10.2590
 2.0700	10.2950
 2.0710	10.3320
 2.0720	10.3690
 2.0730	10.4070
 2.0740	10.4440
 2.0750	10.4810
 2.0760	10.5180
 2.0770	10.5550
 2.0780	10.5900
 2.0790	10.6240
 2.0800	10.6590
 2.0810	10.6910
 2.0820	10.7240
 2.0830	10.7570
 2.0840	10.7890
 2.0850	10.8200
 2.0860	10.8520
 2.0870	10.8820
 2.0880	10.9160
 2.0890	10.9490
 2.0900	10.9820
 2.0910	11.0140
 2.0920	11.0480
 2.0930	11.0780
 2.0940	11.1030
 2.0950	11.1320
 2.0960	11.1580
 2.0970	11.1880
 2.0980	11.2250
 2.0990	11.2580
 2.1000	11.2930
 2.1010	11.3230
 2.1020	11.3510
 2.1030	11.3780
 2.1040	11.4030
 2.1050	11.4260
 2.1060	11.4510
 2.1070	11.4750
 2.1080	11.5020
 2.1090	11.5340
 2.1100	11.5610
 2.1110	11.5910
 2.1120	11.6170
 2.1130	11.6390
 2.1140	11.6620
 2.1150	11.6820
 2.1160	11.7070
 2.1170	11.7370
 2.1180	11.7650
 2.1190	11.7980
 2.1200	11.8270
 2.1210	11.8550
 2.1220	11.8800
 2.1230	11.9080
 2.1240	11.9370
 2.1250	11.9660
 2.1260	11.9990
 2.1270	12.0250
 2.1280	12.0500
 2.1290	12.0710
 2.1300	12.0870
 2.1310	12.1050
 2.1320	12.1220
 2.1330	12.1420
 2.1340	12.1630
 2.1350	12.1830
 2.1360	12.2060
 2.1370	12.2270
 2.1380	12.2460
 2.1390	12.2670
 2.1400	12.2890
 2.1410	12.3110
 2.1420	12.3330
 2.1430	12.3560
 2.1440	12.3790
 2.1450	12.4030
 2.1460	12.4270
 2.1470	12.4520
 2.1480	12.4760
 2.1490	12.4980
 2.1500	12.5190
 2.1510	12.5370
 2.1520	12.5570
 2.1530	12.5790
 2.1540	12.5980
 2.1550	12.6190
 2.1560	12.6380
 2.1570	12.6520
 2.1580	12.6690
 2.1590	12.6850
 2.1600	12.7060
 2.1610	12.7290
 2.1620	12.7530
 2.1630	12.7740
 2.1640	12.7930
 2.1650	12.8160
 2.1660	12.8380
 2.1670	12.8610
 2.1680	12.8880
 2.1690	12.9100
 2.1700	12.9260
 2.1710	12.9490
 2.1720	12.9750
 2.1730	12.9990
 2.1740	13.0270
 2.1750	13.0510
 2.1760	13.0730
 2.1770	13.0950
 2.1780	13.1190
 2.1790	13.1400
 2.1800	13.1550
 2.1810	13.1770
 2.1820	13.2020
 2.1830	13.2270
 2.1840	13.2530
 2.1850	13.2850
 2.1860	13.3120
 2.1870	13.3350
 2.1880	13.3610
 2.1890	13.3890
 2.1900	13.4140
 2.1910	13.4360
 2.1920	13.4590
 2.1930	13.4810
 2.1940	13.5040
 2.1950	13.5280
 2.1960	13.5510
 2.1970	13.5730
 2.1980	13.5960
 2.1990	13.6180
 2.2000	13.6410
 2.2010	13.6660
 2.2020	13.6870
 2.2030	13.7110
 2.2040	13.7300
 2.2050	13.7460
 2.2060	13.7600
 2.2070	13.7730
 2.2080	13.7830
 2.2090	13.7940
 2.2100	13.8050
 2.2110	13.8140
 2.2120	13.8230
 2.2130	13.8310
 2.2140	13.8370
 2.2150	13.8440
 2.2160	13.8520
 2.2170	13.8560
 2.2180	13.8600
 2.2190	13.8580
 2.2200	13.8510
 2.2210	13.8440
 2.2220	13.8360
 2.2230	13.8260
 2.2240	13.8170
 2.2250	13.8040
 2.2260	13.7890
 2.2270	13.7700
 2.2280	13.7500
 2.2290	13.7270
 2.2300	13.6980
 2.2310	13.6680
 2.2320	13.6340
 2.2330	13.6000
 2.2340	13.5670
 2.2350	13.5360
 2.2360	13.4960
 2.2370	13.4550
 2.2380	13.4120
 2.2390	13.3610
 2.2400	13.3140
 2.2410	13.2710
 2.2420	13.2220
 2.2430	13.1700
 2.2440	13.1210
 2.2450	13.0690
 2.2460	13.0210
 2.2470	12.9790
 2.2480	12.9310
 2.2490	12.8840
 2.2500	12.8290
 2.2510	12.7600
 2.2520	12.7020
 2.2530	12.6420
 2.2540	12.5870
 2.2550	12.5420
 2.2560	12.4920
 2.2570	12.4450
 2.2580	12.3900
 2.2590	12.3310
 2.2600	12.2710
 2.2610	12.2090
 2.2620	12.1410
 2.2630	12.0760
 2.2640	12.0160
 2.2650	11.9550
 2.2660	11.8940
 2.2670	11.8350
 2.2680	11.7740
 2.2690	11.7230
 2.2700	11.6760
 2.2710	11.6300
 2.2720	11.5920
 2.2730	11.5460
 2.2740	11.4960
 2.2750	11.4500
 2.2760	11.4020
 2.2770	11.3570
 2.2780	11.3170
 2.2790	11.2700
 2.2800	11.2210
 2.2810	11.1730
 2.2820	11.1190
 2.2830	11.0720
 2.2840	11.0300
 2.2850	10.9850
 2.2860	10.9420
 2.2870	10.8980
 2.2880	10.8510
 2.2890	10.8050
 2.2900	10.7600
 2.2910	10.7130
 2.2920	10.6650
 2.2930	10.6180
 2.2940	10.5740
 2.2950	10.5280
 2.2960	10.4800
 2.2970	10.4310
 2.2980	10.3830
 2.2990	10.3300
 2.3000	10.2780
 2.3010	10.2330
 2.3020	10.1870
 2.3030	10.1460
 2.3040	10.1070
 2.3050	10.0680
 2.3060	10.0350
 2.3070	10.0040
 2.3080	 9.9750
 2.3090	 9.9500
 2.3100	 9.9270
 2.3110	 9.9050
 2.3120	 9.8890
 2.3130	 9.8780
 2.3140	 9.8680
 2.3150	 9.8630
 2.3160	 9.8560
 2.3170	 9.8490
 2.3180	 9.8440
 2.3190	 9.8400
 2.3200	 9.8350
 2.3210	 9.8340
 2.3220	 9.8240
 2.3230	 9.8100
 2.3240	 9.7920
 2.3250	 9.7670
 2.3260	 9.7410
 2.3270	 9.7130
 2.3280	 9.6840
 2.3290	 9.6550
 2.3300	 9.6250
 2.3310	 9.5910
 2.3320	 9.5600
 2.3330	 9.5280
 2.3340	 9.4960
 2.3350	 9.4650
 2.3360	 9.4330
 2.3370	 9.3990
 2.3380	 9.3620
 2.3390	 9.3190
 2.3400	 9.2820
 2.3410	 9.2440
 2.3420	 9.2060
 2.3430	 9.1720
 2.3440	 9.1380
 2.3450	 9.1030
 2.3460	 9.0710
 2.3470	 9.0410
 2.3480	 9.0150
 2.3490	 8.9910
 2.3500	 8.9660
 2.3510	 8.9460
 2.3520	 8.9220
 2.3530	 8.8910
 2.3540	 8.8670
 2.3550	 8.8400
 2.3560	 8.8120
 2.3570	 8.7940
 2.3580	 8.7740
 2.3590	 8.7570
 2.3600	 8.7470
 2.3610	 8.7320
 2.3620	 8.7100
 2.3630	 8.6820
 2.3640	 8.6520
 2.3650	 8.6200
 2.3660	 8.5980
 2.3670	 8.5830
 2.3680	 8.5580
 2.3690	 8.5400
 2.3700	 8.5160
 2.3710	 8.4810
 2.3720	 8.4610
 2.3730	 8.4440
 2.3740	 8.4210
 2.3750	 8.4080
 2.3760	 8.3910
 2.3770	 8.3660
 2.3780	 8.3500
 2.3790	 8.3290
 2.3800	 8.3020
 2.3810	 8.2830
 2.3820	 8.2480
 2.3830	 8.2110
 2.3840	 8.1840
 2.3850	 8.1480
 2.3860	 8.1240
 2.3870	 8.1130
 2.3880	 8.0980
 2.3890	 8.0720
 2.3900	 8.0400
 2.3910	 8.0140
 2.3920	 7.9780
 2.3930	 7.9410
 2.3940	 7.9110
 2.3950	 7.8630
 2.3960	 7.8270
 2.3970	 7.8130
 2.3980	 7.7810
 2.3990	 7.7380
 2.4000	 7.6940
 2.4010	 7.6430
 2.4020	 7.6060
 2.4030	 7.5810
 2.4040	 7.5470
 2.4050	 7.5060
 2.4060	 7.4630
 2.4070	 7.4210
 2.4080	 7.3830
 2.4090	 7.3450
 2.4100	 7.3010
 2.4110	 7.2650
 2.4120	 7.2290
 2.4130	 7.1930
 2.4140	 7.1600
 2.4150	 7.1250
 2.4160	 7.0940
 2.4170	 7.0630
 2.4180	 7.0340
 2.4190	 6.9970
 2.4200	 6.9570
 2.4210	 6.9080
 2.4220	 6.8610
 2.4230	 6.8300
 2.4240	 6.7840
 2.4250	 6.7550
 2.4260	 6.7240
 2.4270	 6.6640
 2.4280	 6.6400
 2.4290	 6.6110
 2.4300	 6.5650
 2.4310	 6.5340
 2.4320	 6.4800
 2.4330	 6.4190
 2.4340	 6.3700
 2.4350	 6.3310
 2.4360	 6.3060
 2.4370	 6.2620
 2.4380	 6.2190
 2.4390	 6.1790
 2.4400	 6.1190
 2.4410	 6.0760
 2.4420	 6.0320
 2.4430	 5.9610
 2.4440	 5.9110
 2.4450	 5.8870
 2.4460	 5.8510
 2.4470	 5.8110
 2.4480	 5.7700
 2.4490	 5.7080
 2.4500	 5.6600
 2.4510	 5.6360
 2.4520	 5.6080
 2.4530	 5.5670
 2.4540	 5.5230
 2.4550	 5.4810
 2.4560	 5.4270
 2.4570	 5.3840
 2.4580	 5.3230
 2.4590	 5.2450
 2.4600	 5.1930
 2.4610	 5.1470
 2.4620	 5.1110
 2.4630	 5.1000
 2.4640	 5.0960
 2.4650	 5.0890
 2.4660	 5.0840
 2.4670	 5.0700
 2.4680	 5.0360
 2.4690	 4.9800
 2.4700	 4.9470
 2.4710	 4.9410
 2.4720	 4.9170
 2.4730	 4.8990
 2.4740	 4.8670
 2.4750	 4.7990
 2.4760	 4.7520
 2.4770	 4.7050
 2.4780	 4.6950
 2.4790	 4.7450
 2.4800	 4.7160
 2.4810	 4.6400
 2.4820	 4.5810
 2.4830	 4.5040
 2.4840	 4.5270
 2.4850	 4.5890
 2.4860	 4.5820
 2.4870	 4.5610
 2.4880	 4.5240
 2.4890	 4.5070
 2.4900	 4.4640
 2.4910	 4.4500
 2.4920	 4.4920
 2.4930	 4.4910
 2.4940	 4.5010
 2.4950	 4.5350
 2.4960	 4.5360
 2.4970	 4.5060
 2.4980	 4.4910
 2.4990	 4.4910
 2.5000	 4.4820
