Name: Chorisia insignis
Type: vegetation
Class: Tree
Genus: Chorisia
Species: insignis
Sample No.: JPL243
Owner: JPL
Wavelength Range: VSWIR
Origin: 34.12649; -118.11034; WGS84
Collection Date: 10/6/2016
Description: Samples were collected at the Huntington Garden in San Marino California as part of a JPL Subcontract studying HyTES imagery. Samples were taken to JPL and processed within 48 hours of collection. The same leaves were processed in the Nicolet and then measured using the ASD.
Measurement: Bidirectional reflectance
First Column: X
Second Column: Y
X Units: Wavelength (micrometer)
Y Units: Reflectance (percentage)
First X Value: 0.35
Last X Value: 2.5
Number of X Values: 2151
Additional Information: vegetation.tree.chorisia.insignis.vswir.jpl243.jpl.asd.ancillary.txt

 0.3500	 4.8630
 0.3510	 4.7240
 0.3520	 4.6710
 0.3530	 4.7190
 0.3540	 4.7930
 0.3550	 4.7240
 0.3560	 4.7010
 0.3570	 4.7000
 0.3580	 4.6060
 0.3590	 4.5660
 0.3600	 4.5810
 0.3610	 4.6170
 0.3620	 4.6130
 0.3630	 4.6210
 0.3640	 4.6160
 0.3650	 4.5780
 0.3660	 4.5700
 0.3670	 4.5830
 0.3680	 4.5980
 0.3690	 4.5910
 0.3700	 4.5950
 0.3710	 4.6000
 0.3720	 4.5950
 0.3730	 4.5740
 0.3740	 4.5570
 0.3750	 4.5520
 0.3760	 4.5640
 0.3770	 4.5850
 0.3780	 4.5830
 0.3790	 4.5680
 0.3800	 4.5830
 0.3810	 4.5510
 0.3820	 4.5430
 0.3830	 4.5950
 0.3840	 4.6230
 0.3850	 4.6050
 0.3860	 4.5840
 0.3870	 4.6110
 0.3880	 4.6100
 0.3890	 4.5950
 0.3900	 4.5900
 0.3910	 4.6220
 0.3920	 4.6550
 0.3930	 4.6710
 0.3940	 4.6690
 0.3950	 4.6820
 0.3960	 4.7030
 0.3970	 4.7330
 0.3980	 4.7710
 0.3990	 4.7630
 0.4000	 4.7660
 0.4010	 4.8040
 0.4020	 4.8440
 0.4030	 4.8810
 0.4040	 4.9030
 0.4050	 4.9070
 0.4060	 4.9230
 0.4070	 4.9480
 0.4080	 4.9780
 0.4090	 5.0110
 0.4100	 5.0330
 0.4110	 5.0410
 0.4120	 5.0460
 0.4130	 5.0840
 0.4140	 5.1150
 0.4150	 5.1320
 0.4160	 5.1440
 0.4170	 5.1640
 0.4180	 5.1870
 0.4190	 5.2070
 0.4200	 5.2210
 0.4210	 5.2370
 0.4220	 5.2490
 0.4230	 5.2550
 0.4240	 5.2680
 0.4250	 5.2810
 0.4260	 5.2880
 0.4270	 5.2920
 0.4280	 5.2980
 0.4290	 5.2990
 0.4300	 5.2980
 0.4310	 5.3190
 0.4320	 5.3320
 0.4330	 5.3360
 0.4340	 5.3370
 0.4350	 5.3340
 0.4360	 5.3360
 0.4370	 5.3440
 0.4380	 5.3540
 0.4390	 5.3640
 0.4400	 5.3720
 0.4410	 5.3810
 0.4420	 5.3920
 0.4430	 5.4020
 0.4440	 5.4100
 0.4450	 5.4200
 0.4460	 5.4420
 0.4470	 5.4570
 0.4480	 5.4610
 0.4490	 5.4730
 0.4500	 5.5000
 0.4510	 5.5220
 0.4520	 5.5280
 0.4530	 5.5350
 0.4540	 5.5410
 0.4550	 5.5500
 0.4560	 5.5650
 0.4570	 5.5730
 0.4580	 5.5730
 0.4590	 5.5720
 0.4600	 5.5830
 0.4610	 5.5880
 0.4620	 5.5840
 0.4630	 5.5770
 0.4640	 5.5850
 0.4650	 5.5900
 0.4660	 5.5900
 0.4670	 5.6000
 0.4680	 5.5890
 0.4690	 5.5780
 0.4700	 5.5840
 0.4710	 5.5970
 0.4720	 5.6020
 0.4730	 5.5990
 0.4740	 5.5950
 0.4750	 5.5960
 0.4760	 5.5990
 0.4770	 5.6020
 0.4780	 5.6030
 0.4790	 5.6060
 0.4800	 5.6120
 0.4810	 5.6170
 0.4820	 5.6210
 0.4830	 5.6250
 0.4840	 5.6290
 0.4850	 5.6340
 0.4860	 5.6400
 0.4870	 5.6510
 0.4880	 5.6680
 0.4890	 5.6780
 0.4900	 5.6930
 0.4910	 5.7140
 0.4920	 5.7360
 0.4930	 5.7580
 0.4940	 5.7820
 0.4950	 5.8110
 0.4960	 5.8440
 0.4970	 5.8790
 0.4980	 5.9190
 0.4990	 5.9670
 0.5000	 6.0190
 0.5010	 6.0730
 0.5020	 6.1290
 0.5030	 6.1850
 0.5040	 6.2610
 0.5050	 6.3420
 0.5060	 6.4190
 0.5070	 6.5040
 0.5080	 6.5990
 0.5090	 6.7070
 0.5100	 6.8270
 0.5110	 6.9510
 0.5120	 7.0800
 0.5130	 7.2190
 0.5140	 7.3720
 0.5150	 7.5380
 0.5160	 7.7130
 0.5170	 7.8940
 0.5180	 8.0780
 0.5190	 8.2760
 0.5200	 8.4840
 0.5210	 8.6890
 0.5220	 8.9000
 0.5230	 9.1140
 0.5240	 9.3270
 0.5250	 9.5340
 0.5260	 9.7370
 0.5270	 9.9350
 0.5280	10.1250
 0.5290	10.3080
 0.5300	10.4800
 0.5310	10.6400
 0.5320	10.7920
 0.5330	10.9350
 0.5340	11.0660
 0.5350	11.1850
 0.5360	11.2950
 0.5370	11.3990
 0.5380	11.4970
 0.5390	11.5880
 0.5400	11.6830
 0.5410	11.7800
 0.5420	11.8740
 0.5430	11.9620
 0.5440	12.0310
 0.5450	12.0820
 0.5460	12.1190
 0.5470	12.1460
 0.5480	12.1730
 0.5490	12.2020
 0.5500	12.2310
 0.5510	12.2530
 0.5520	12.2670
 0.5530	12.2700
 0.5540	12.2570
 0.5550	12.2310
 0.5560	12.1920
 0.5570	12.1420
 0.5580	12.0800
 0.5590	12.0070
 0.5600	11.9240
 0.5610	11.8370
 0.5620	11.7400
 0.5630	11.6330
 0.5640	11.5180
 0.5650	11.4040
 0.5660	11.2890
 0.5670	11.1700
 0.5680	11.0450
 0.5690	10.9150
 0.5700	10.7830
 0.5710	10.6510
 0.5720	10.5210
 0.5730	10.3930
 0.5740	10.2710
 0.5750	10.1570
 0.5760	10.0450
 0.5770	 9.9360
 0.5780	 9.8340
 0.5790	 9.7450
 0.5800	 9.6620
 0.5810	 9.5840
 0.5820	 9.5130
 0.5830	 9.4420
 0.5840	 9.3750
 0.5850	 9.3100
 0.5860	 9.2510
 0.5870	 9.1990
 0.5880	 9.1490
 0.5890	 9.0980
 0.5900	 9.0520
 0.5910	 9.0060
 0.5920	 8.9610
 0.5930	 8.9210
 0.5940	 8.8790
 0.5950	 8.8390
 0.5960	 8.8030
 0.5970	 8.7690
 0.5980	 8.7360
 0.5990	 8.7010
 0.6000	 8.6630
 0.6010	 8.6260
 0.6020	 8.5890
 0.6030	 8.5530
 0.6040	 8.5140
 0.6050	 8.4710
 0.6060	 8.4280
 0.6070	 8.3860
 0.6080	 8.3380
 0.6090	 8.2930
 0.6100	 8.2530
 0.6110	 8.2180
 0.6120	 8.1700
 0.6130	 8.1080
 0.6140	 8.0400
 0.6150	 7.9780
 0.6160	 7.9230
 0.6170	 7.8700
 0.6180	 7.8170
 0.6190	 7.7710
 0.6200	 7.7320
 0.6210	 7.6970
 0.6220	 7.6630
 0.6230	 7.6350
 0.6240	 7.6130
 0.6250	 7.5960
 0.6260	 7.5830
 0.6270	 7.5740
 0.6280	 7.5670
 0.6290	 7.5610
 0.6300	 7.5520
 0.6310	 7.5390
 0.6320	 7.5190
 0.6330	 7.4890
 0.6340	 7.4510
 0.6350	 7.4010
 0.6360	 7.3390
 0.6370	 7.2670
 0.6380	 7.1880
 0.6390	 7.1000
 0.6400	 7.0040
 0.6410	 6.9110
 0.6420	 6.8220
 0.6430	 6.7310
 0.6440	 6.6390
 0.6450	 6.5530
 0.6460	 6.4740
 0.6470	 6.4000
 0.6480	 6.3350
 0.6490	 6.2830
 0.6500	 6.2430
 0.6510	 6.2090
 0.6520	 6.1820
 0.6530	 6.1600
 0.6540	 6.1420
 0.6550	 6.1260
 0.6560	 6.1070
 0.6570	 6.0840
 0.6580	 6.0560
 0.6590	 6.0240
 0.6600	 5.9880
 0.6610	 5.9480
 0.6620	 5.9060
 0.6630	 5.8660
 0.6640	 5.8280
 0.6650	 5.7890
 0.6660	 5.7560
 0.6670	 5.7280
 0.6680	 5.7050
 0.6690	 5.6860
 0.6700	 5.6740
 0.6710	 5.6660
 0.6720	 5.6630
 0.6730	 5.6640
 0.6740	 5.6720
 0.6750	 5.6840
 0.6760	 5.6980
 0.6770	 5.7180
 0.6780	 5.7440
 0.6790	 5.7750
 0.6800	 5.8150
 0.6810	 5.8680
 0.6820	 5.9320
 0.6830	 6.0090
 0.6840	 6.1060
 0.6850	 6.2290
 0.6860	 6.3810
 0.6870	 6.5690
 0.6880	 6.7970
 0.6890	 7.0750
 0.6900	 7.4110
 0.6910	 7.8080
 0.6920	 8.2690
 0.6930	 8.7920
 0.6940	 9.3790
 0.6950	10.0210
 0.6960	10.7120
 0.6970	11.4460
 0.6980	12.2130
 0.6990	13.0070
 0.7000	13.8200
 0.7010	14.6430
 0.7020	15.4660
 0.7030	16.2820
 0.7040	17.0910
 0.7050	17.8880
 0.7060	18.6690
 0.7070	19.4350
 0.7080	20.1810
 0.7090	20.9100
 0.7100	21.6260
 0.7110	22.3300
 0.7120	23.0220
 0.7130	23.6990
 0.7140	24.3580
 0.7150	25.0030
 0.7160	25.6370
 0.7170	26.2580
 0.7180	26.8650
 0.7190	27.4560
 0.7200	28.0290
 0.7210	28.5870
 0.7220	29.1270
 0.7230	29.6480
 0.7240	30.1510
 0.7250	30.6300
 0.7260	31.0850
 0.7270	31.5200
 0.7280	31.9370
 0.7290	32.3310
 0.7300	32.7030
 0.7310	33.0540
 0.7320	33.3870
 0.7330	33.7000
 0.7340	33.9910
 0.7350	34.2600
 0.7360	34.5150
 0.7370	34.7530
 0.7380	34.9750
 0.7390	35.1820
 0.7400	35.3730
 0.7410	35.5490
 0.7420	35.7130
 0.7430	35.8630
 0.7440	35.9990
 0.7450	36.1230
 0.7460	36.2350
 0.7470	36.3350
 0.7480	36.4260
 0.7490	36.5090
 0.7500	36.5810
 0.7510	36.6480
 0.7520	36.7090
 0.7530	36.7630
 0.7540	36.8120
 0.7550	36.8540
 0.7560	36.8910
 0.7570	36.9230
 0.7580	36.9530
 0.7590	36.9820
 0.7600	37.0070
 0.7610	37.0280
 0.7620	37.0460
 0.7630	37.0610
 0.7640	37.0750
 0.7650	37.0880
 0.7660	37.0990
 0.7670	37.1070
 0.7680	37.1130
 0.7690	37.1190
 0.7700	37.1250
 0.7710	37.1320
 0.7720	37.1350
 0.7730	37.1380
 0.7740	37.1410
 0.7750	37.1440
 0.7760	37.1450
 0.7770	37.1450
 0.7780	37.1450
 0.7790	37.1470
 0.7800	37.1500
 0.7810	37.1540
 0.7820	37.1570
 0.7830	37.1580
 0.7840	37.1580
 0.7850	37.1580
 0.7860	37.1570
 0.7870	37.1530
 0.7880	37.1510
 0.7890	37.1500
 0.7900	37.1460
 0.7910	37.1430
 0.7920	37.1410
 0.7930	37.1380
 0.7940	37.1370
 0.7950	37.1340
 0.7960	37.1280
 0.7970	37.1190
 0.7980	37.1110
 0.7990	37.1000
 0.8000	37.0900
 0.8010	37.0830
 0.8020	37.0780
 0.8030	37.0700
 0.8040	37.0600
 0.8050	37.0540
 0.8060	37.0440
 0.8070	37.0330
 0.8080	37.0210
 0.8090	37.0100
 0.8100	36.9980
 0.8110	36.9840
 0.8120	36.9700
 0.8130	36.9590
 0.8140	36.9460
 0.8150	36.9320
 0.8160	36.9190
 0.8170	36.9060
 0.8180	36.8930
 0.8190	36.8800
 0.8200	36.8670
 0.8210	36.8540
 0.8220	36.8380
 0.8230	36.8220
 0.8240	36.8110
 0.8250	36.7970
 0.8260	36.7830
 0.8270	36.7700
 0.8280	36.7580
 0.8290	36.7450
 0.8300	36.7290
 0.8310	36.7150
 0.8320	36.7030
 0.8330	36.6900
 0.8340	36.6770
 0.8350	36.6660
 0.8360	36.6550
 0.8370	36.6440
 0.8380	36.6340
 0.8390	36.6270
 0.8400	36.6180
 0.8410	36.6110
 0.8420	36.6050
 0.8430	36.5950
 0.8440	36.5890
 0.8450	36.5840
 0.8460	36.5770
 0.8470	36.5700
 0.8480	36.5650
 0.8490	36.5610
 0.8500	36.5550
 0.8510	36.5530
 0.8520	36.5500
 0.8530	36.5440
 0.8540	36.5380
 0.8550	36.5380
 0.8560	36.5360
 0.8570	36.5310
 0.8580	36.5290
 0.8590	36.5290
 0.8600	36.5290
 0.8610	36.5290
 0.8620	36.5310
 0.8630	36.5330
 0.8640	36.5340
 0.8650	36.5320
 0.8660	36.5320
 0.8670	36.5320
 0.8680	36.5340
 0.8690	36.5360
 0.8700	36.5410
 0.8710	36.5430
 0.8720	36.5440
 0.8730	36.5470
 0.8740	36.5500
 0.8750	36.5520
 0.8760	36.5540
 0.8770	36.5560
 0.8780	36.5600
 0.8790	36.5630
 0.8800	36.5640
 0.8810	36.5680
 0.8820	36.5710
 0.8830	36.5750
 0.8840	36.5810
 0.8850	36.5850
 0.8860	36.5860
 0.8870	36.5860
 0.8880	36.5900
 0.8890	36.5970
 0.8900	36.6010
 0.8910	36.6030
 0.8920	36.6090
 0.8930	36.6150
 0.8940	36.6150
 0.8950	36.6140
 0.8960	36.6200
 0.8970	36.6240
 0.8980	36.6270
 0.8990	36.6300
 0.9000	36.6340
 0.9010	36.6380
 0.9020	36.6430
 0.9030	36.6490
 0.9040	36.6500
 0.9050	36.6540
 0.9060	36.6560
 0.9070	36.6540
 0.9080	36.6560
 0.9090	36.6590
 0.9100	36.6600
 0.9110	36.6580
 0.9120	36.6570
 0.9130	36.6550
 0.9140	36.6530
 0.9150	36.6530
 0.9160	36.6540
 0.9170	36.6540
 0.9180	36.6530
 0.9190	36.6490
 0.9200	36.6370
 0.9210	36.6320
 0.9220	36.6330
 0.9230	36.6290
 0.9240	36.6180
 0.9250	36.6070
 0.9260	36.6010
 0.9270	36.5990
 0.9280	36.5860
 0.9290	36.5700
 0.9300	36.5570
 0.9310	36.5480
 0.9320	36.5360
 0.9330	36.5190
 0.9340	36.4990
 0.9350	36.4830
 0.9360	36.4680
 0.9370	36.4500
 0.9380	36.4320
 0.9390	36.4170
 0.9400	36.3980
 0.9410	36.3790
 0.9420	36.3590
 0.9430	36.3320
 0.9440	36.3060
 0.9450	36.2880
 0.9460	36.2740
 0.9470	36.2290
 0.9480	36.1920
 0.9490	36.1620
 0.9500	36.1290
 0.9510	36.0900
 0.9520	36.0480
 0.9530	36.0080
 0.9540	35.9730
 0.9550	35.9530
 0.9560	35.9180
 0.9570	35.8750
 0.9580	35.8390
 0.9590	35.8050
 0.9600	35.7690
 0.9610	35.7380
 0.9620	35.7150
 0.9630	35.7010
 0.9640	35.6820
 0.9650	35.6590
 0.9660	35.6390
 0.9670	35.6280
 0.9680	35.6180
 0.9690	35.5980
 0.9700	35.5680
 0.9710	35.5770
 0.9720	35.5830
 0.9730	35.5730
 0.9740	35.5550
 0.9750	35.5440
 0.9760	35.5390
 0.9770	35.5360
 0.9780	35.5280
 0.9790	35.5180
 0.9800	35.5210
 0.9810	35.5230
 0.9820	35.5090
 0.9830	35.5080
 0.9840	35.5110
 0.9850	35.5120
 0.9860	35.5120
 0.9870	35.5140
 0.9880	35.5090
 0.9890	35.5040
 0.9900	35.5110
 0.9910	35.5180
 0.9920	35.5240
 0.9930	35.5270
 0.9940	35.5320
 0.9950	35.5410
 0.9960	35.5380
 0.9970	35.5330
 0.9980	35.5450
 0.9990	35.5600
 1.0000	35.5690
 1.0010	35.5980
 1.0020	35.6080
 1.0030	35.6130
 1.0040	35.6190
 1.0050	35.6290
 1.0060	35.6370
 1.0070	35.6420
 1.0080	35.6510
 1.0090	35.6620
 1.0100	35.6700
 1.0110	35.6760
 1.0120	35.6830
 1.0130	35.6880
 1.0140	35.6960
 1.0150	35.7040
 1.0160	35.7160
 1.0170	35.7290
 1.0180	35.7390
 1.0190	35.7460
 1.0200	35.7520
 1.0210	35.7580
 1.0220	35.7630
 1.0230	35.7700
 1.0240	35.7820
 1.0250	35.7900
 1.0260	35.7970
 1.0270	35.8060
 1.0280	35.8160
 1.0290	35.8230
 1.0300	35.8270
 1.0310	35.8340
 1.0320	35.8390
 1.0330	35.8450
 1.0340	35.8550
 1.0350	35.8620
 1.0360	35.8690
 1.0370	35.8770
 1.0380	35.8830
 1.0390	35.8880
 1.0400	35.8920
 1.0410	35.8940
 1.0420	35.8970
 1.0430	35.9000
 1.0440	35.9040
 1.0450	35.9090
 1.0460	35.9140
 1.0470	35.9200
 1.0480	35.9240
 1.0490	35.9250
 1.0500	35.9270
 1.0510	35.9280
 1.0520	35.9310
 1.0530	35.9350
 1.0540	35.9410
 1.0550	35.9450
 1.0560	35.9490
 1.0570	35.9500
 1.0580	35.9490
 1.0590	35.9500
 1.0600	35.9490
 1.0610	35.9510
 1.0620	35.9550
 1.0630	35.9570
 1.0640	35.9580
 1.0650	35.9600
 1.0660	35.9640
 1.0670	35.9660
 1.0680	35.9670
 1.0690	35.9700
 1.0700	35.9700
 1.0710	35.9670
 1.0720	35.9670
 1.0730	35.9670
 1.0740	35.9670
 1.0750	35.9680
 1.0760	35.9680
 1.0770	35.9670
 1.0780	35.9670
 1.0790	35.9680
 1.0800	35.9690
 1.0810	35.9700
 1.0820	35.9690
 1.0830	35.9680
 1.0840	35.9660
 1.0850	35.9620
 1.0860	35.9570
 1.0870	35.9530
 1.0880	35.9480
 1.0890	35.9450
 1.0900	35.9440
 1.0910	35.9420
 1.0920	35.9430
 1.0930	35.9400
 1.0940	35.9340
 1.0950	35.9300
 1.0960	35.9260
 1.0970	35.9210
 1.0980	35.9160
 1.0990	35.9100
 1.1000	35.9030
 1.1010	35.8970
 1.1020	35.8920
 1.1030	35.8880
 1.1040	35.8820
 1.1050	35.8780
 1.1060	35.8720
 1.1070	35.8660
 1.1080	35.8590
 1.1090	35.8520
 1.1100	35.8440
 1.1110	35.8360
 1.1120	35.8270
 1.1130	35.8180
 1.1140	35.8080
 1.1150	35.7980
 1.1160	35.7870
 1.1170	35.7770
 1.1180	35.7650
 1.1190	35.7550
 1.1200	35.7410
 1.1210	35.7280
 1.1220	35.7120
 1.1230	35.6940
 1.1240	35.6730
 1.1250	35.6480
 1.1260	35.6210
 1.1270	35.5910
 1.1280	35.5600
 1.1290	35.5240
 1.1300	35.4860
 1.1310	35.4430
 1.1320	35.3930
 1.1330	35.3410
 1.1340	35.2840
 1.1350	35.2230
 1.1360	35.1600
 1.1370	35.0920
 1.1380	35.0200
 1.1390	34.9460
 1.1400	34.8690
 1.1410	34.7900
 1.1420	34.7120
 1.1430	34.6330
 1.1440	34.5540
 1.1450	34.4760
 1.1460	34.3990
 1.1470	34.3210
 1.1480	34.2480
 1.1490	34.1750
 1.1500	34.1070
 1.1510	34.0390
 1.1520	33.9770
 1.1530	33.9170
 1.1540	33.8640
 1.1550	33.8160
 1.1560	33.7750
 1.1570	33.7360
 1.1580	33.7020
 1.1590	33.6690
 1.1600	33.6370
 1.1610	33.6090
 1.1620	33.5850
 1.1630	33.5640
 1.1640	33.5450
 1.1650	33.5270
 1.1660	33.5110
 1.1670	33.4950
 1.1680	33.4810
 1.1690	33.4670
 1.1700	33.4560
 1.1710	33.4440
 1.1720	33.4320
 1.1730	33.4210
 1.1740	33.4120
 1.1750	33.4030
 1.1760	33.3940
 1.1770	33.3840
 1.1780	33.3740
 1.1790	33.3630
 1.1800	33.3510
 1.1810	33.3400
 1.1820	33.3290
 1.1830	33.3160
 1.1840	33.3050
 1.1850	33.2920
 1.1860	33.2810
 1.1870	33.2700
 1.1880	33.2600
 1.1890	33.2500
 1.1900	33.2410
 1.1910	33.2320
 1.1920	33.2240
 1.1930	33.2180
 1.1940	33.2120
 1.1950	33.2060
 1.1960	33.2010
 1.1970	33.1980
 1.1980	33.1940
 1.1990	33.1940
 1.2000	33.1940
 1.2010	33.1930
 1.2020	33.1930
 1.2030	33.1940
 1.2040	33.1950
 1.2050	33.1970
 1.2060	33.2010
 1.2070	33.2060
 1.2080	33.2100
 1.2090	33.2160
 1.2100	33.2230
 1.2110	33.2310
 1.2120	33.2380
 1.2130	33.2470
 1.2140	33.2580
 1.2150	33.2680
 1.2160	33.2780
 1.2170	33.2890
 1.2180	33.3000
 1.2190	33.3100
 1.2200	33.3220
 1.2210	33.3350
 1.2220	33.3470
 1.2230	33.3590
 1.2240	33.3720
 1.2250	33.3840
 1.2260	33.3970
 1.2270	33.4080
 1.2280	33.4210
 1.2290	33.4330
 1.2300	33.4410
 1.2310	33.4510
 1.2320	33.4600
 1.2330	33.4670
 1.2340	33.4760
 1.2350	33.4880
 1.2360	33.4970
 1.2370	33.5070
 1.2380	33.5160
 1.2390	33.5230
 1.2400	33.5300
 1.2410	33.5360
 1.2420	33.5430
 1.2430	33.5510
 1.2440	33.5570
 1.2450	33.5650
 1.2460	33.5710
 1.2470	33.5780
 1.2480	33.5840
 1.2490	33.5890
 1.2500	33.5930
 1.2510	33.5950
 1.2520	33.5980
 1.2530	33.6020
 1.2540	33.6050
 1.2550	33.6100
 1.2560	33.6140
 1.2570	33.6160
 1.2580	33.6180
 1.2590	33.6180
 1.2600	33.6170
 1.2610	33.6150
 1.2620	33.6130
 1.2630	33.6120
 1.2640	33.6090
 1.2650	33.6100
 1.2660	33.6090
 1.2670	33.6060
 1.2680	33.6020
 1.2690	33.5960
 1.2700	33.5900
 1.2710	33.5840
 1.2720	33.5770
 1.2730	33.5690
 1.2740	33.5600
 1.2750	33.5500
 1.2760	33.5400
 1.2770	33.5290
 1.2780	33.5170
 1.2790	33.5050
 1.2800	33.4890
 1.2810	33.4750
 1.2820	33.4600
 1.2830	33.4430
 1.2840	33.4250
 1.2850	33.4070
 1.2860	33.3890
 1.2870	33.3690
 1.2880	33.3490
 1.2890	33.3280
 1.2900	33.3060
 1.2910	33.2830
 1.2920	33.2580
 1.2930	33.2340
 1.2940	33.2090
 1.2950	33.1830
 1.2960	33.1580
 1.2970	33.1310
 1.2980	33.1010
 1.2990	33.0700
 1.3000	33.0370
 1.3010	33.0010
 1.3020	32.9660
 1.3030	32.9300
 1.3040	32.8940
 1.3050	32.8560
 1.3060	32.8170
 1.3070	32.7780
 1.3080	32.7350
 1.3090	32.6920
 1.3100	32.6490
 1.3110	32.6010
 1.3120	32.5510
 1.3130	32.5000
 1.3140	32.4470
 1.3150	32.3900
 1.3160	32.3340
 1.3170	32.2760
 1.3180	32.2170
 1.3190	32.1560
 1.3200	32.0930
 1.3210	32.0300
 1.3220	31.9640
 1.3230	31.8970
 1.3240	31.8290
 1.3250	31.7590
 1.3260	31.6860
 1.3270	31.6110
 1.3280	31.5350
 1.3290	31.4570
 1.3300	31.3790
 1.3310	31.3000
 1.3320	31.2200
 1.3330	31.1380
 1.3340	31.0530
 1.3350	30.9690
 1.3360	30.8840
 1.3370	30.8000
 1.3380	30.7170
 1.3390	30.6360
 1.3400	30.5530
 1.3410	30.4700
 1.3420	30.3870
 1.3430	30.3040
 1.3440	30.2210
 1.3450	30.1400
 1.3460	30.0600
 1.3470	29.9800
 1.3480	29.9010
 1.3490	29.8230
 1.3500	29.7460
 1.3510	29.6680
 1.3520	29.5900
 1.3530	29.5110
 1.3540	29.4320
 1.3550	29.3540
 1.3560	29.2770
 1.3570	29.1990
 1.3580	29.1190
 1.3590	29.0360
 1.3600	28.9510
 1.3610	28.8630
 1.3620	28.7720
 1.3630	28.6770
 1.3640	28.5780
 1.3650	28.4720
 1.3660	28.3630
 1.3670	28.2480
 1.3680	28.1230
 1.3690	27.9920
 1.3700	27.8490
 1.3710	27.6950
 1.3720	27.5330
 1.3730	27.3550
 1.3740	27.1670
 1.3750	26.9650
 1.3760	26.7470
 1.3770	26.5130
 1.3780	26.2600
 1.3790	25.9910
 1.3800	25.7040
 1.3810	25.3970
 1.3820	25.0750
 1.3830	24.7360
 1.3840	24.3820
 1.3850	24.0100
 1.3860	23.6260
 1.3870	23.2240
 1.3880	22.8160
 1.3890	22.3960
 1.3900	21.9670
 1.3910	21.5360
 1.3920	21.0990
 1.3930	20.6600
 1.3940	20.2220
 1.3950	19.7820
 1.3960	19.3480
 1.3970	18.9220
 1.3980	18.5030
 1.3990	18.0990
 1.4000	17.7060
 1.4010	17.3230
 1.4020	16.9570
 1.4030	16.6040
 1.4040	16.2660
 1.4050	15.9440
 1.4060	15.6370
 1.4070	15.3500
 1.4080	15.0780
 1.4090	14.8210
 1.4100	14.5810
 1.4110	14.3550
 1.4120	14.1420
 1.4130	13.9440
 1.4140	13.7580
 1.4150	13.5870
 1.4160	13.4280
 1.4170	13.2800
 1.4180	13.1420
 1.4190	13.0140
 1.4200	12.8940
 1.4210	12.7830
 1.4220	12.6790
 1.4230	12.5840
 1.4240	12.4960
 1.4250	12.4130
 1.4260	12.3380
 1.4270	12.2680
 1.4280	12.2050
 1.4290	12.1450
 1.4300	12.0900
 1.4310	12.0400
 1.4320	11.9940
 1.4330	11.9520
 1.4340	11.9150
 1.4350	11.8810
 1.4360	11.8520
 1.4370	11.8250
 1.4380	11.8020
 1.4390	11.7830
 1.4400	11.7650
 1.4410	11.7510
 1.4420	11.7390
 1.4430	11.7290
 1.4440	11.7230
 1.4450	11.7180
 1.4460	11.7150
 1.4470	11.7140
 1.4480	11.7140
 1.4490	11.7160
 1.4500	11.7200
 1.4510	11.7260
 1.4520	11.7340
 1.4530	11.7430
 1.4540	11.7540
 1.4550	11.7670
 1.4560	11.7830
 1.4570	11.8000
 1.4580	11.8200
 1.4590	11.8440
 1.4600	11.8690
 1.4610	11.8980
 1.4620	11.9310
 1.4630	11.9680
 1.4640	12.0090
 1.4650	12.0550
 1.4660	12.1040
 1.4670	12.1560
 1.4680	12.2110
 1.4690	12.2710
 1.4700	12.3340
 1.4710	12.4010
 1.4720	12.4700
 1.4730	12.5430
 1.4740	12.6180
 1.4750	12.6960
 1.4760	12.7780
 1.4770	12.8610
 1.4780	12.9460
 1.4790	13.0320
 1.4800	13.1190
 1.4810	13.2080
 1.4820	13.2990
 1.4830	13.3920
 1.4840	13.4870
 1.4850	13.5830
 1.4860	13.6790
 1.4870	13.7770
 1.4880	13.8740
 1.4890	13.9720
 1.4900	14.0710
 1.4910	14.1720
 1.4920	14.2730
 1.4930	14.3770
 1.4940	14.4800
 1.4950	14.5830
 1.4960	14.6870
 1.4970	14.7920
 1.4980	14.8970
 1.4990	15.0020
 1.5000	15.1070
 1.5010	15.2120
 1.5020	15.3180
 1.5030	15.4240
 1.5040	15.5300
 1.5050	15.6360
 1.5060	15.7420
 1.5070	15.8480
 1.5080	15.9540
 1.5090	16.0610
 1.5100	16.1670
 1.5110	16.2740
 1.5120	16.3800
 1.5130	16.4850
 1.5140	16.5900
 1.5150	16.6930
 1.5160	16.7970
 1.5170	16.9010
 1.5180	17.0040
 1.5190	17.1080
 1.5200	17.2110
 1.5210	17.3130
 1.5220	17.4150
 1.5230	17.5170
 1.5240	17.6170
 1.5250	17.7190
 1.5260	17.8200
 1.5270	17.9190
 1.5280	18.0190
 1.5290	18.1160
 1.5300	18.2130
 1.5310	18.3090
 1.5320	18.4040
 1.5330	18.4990
 1.5340	18.5930
 1.5350	18.6850
 1.5360	18.7770
 1.5370	18.8680
 1.5380	18.9580
 1.5390	19.0480
 1.5400	19.1380
 1.5410	19.2270
 1.5420	19.3160
 1.5430	19.4040
 1.5440	19.4900
 1.5450	19.5760
 1.5460	19.6610
 1.5470	19.7450
 1.5480	19.8280
 1.5490	19.9110
 1.5500	19.9930
 1.5510	20.0740
 1.5520	20.1550
 1.5530	20.2340
 1.5540	20.3110
 1.5550	20.3870
 1.5560	20.4620
 1.5570	20.5360
 1.5580	20.6100
 1.5590	20.6840
 1.5600	20.7560
 1.5610	20.8260
 1.5620	20.8960
 1.5630	20.9660
 1.5640	21.0340
 1.5650	21.1030
 1.5660	21.1710
 1.5670	21.2370
 1.5680	21.3030
 1.5690	21.3680
 1.5700	21.4320
 1.5710	21.4950
 1.5720	21.5560
 1.5730	21.6180
 1.5740	21.6780
 1.5750	21.7380
 1.5760	21.7980
 1.5770	21.8560
 1.5780	21.9130
 1.5790	21.9710
 1.5800	22.0290
 1.5810	22.0860
 1.5820	22.1420
 1.5830	22.1960
 1.5840	22.2500
 1.5850	22.3030
 1.5860	22.3570
 1.5870	22.4100
 1.5880	22.4620
 1.5890	22.5140
 1.5900	22.5660
 1.5910	22.6160
 1.5920	22.6660
 1.5930	22.7140
 1.5940	22.7610
 1.5950	22.8090
 1.5960	22.8570
 1.5970	22.9050
 1.5980	22.9530
 1.5990	23.0000
 1.6000	23.0450
 1.6010	23.0880
 1.6020	23.1310
 1.6030	23.1740
 1.6040	23.2170
 1.6050	23.2590
 1.6060	23.2990
 1.6070	23.3400
 1.6080	23.3800
 1.6090	23.4200
 1.6100	23.4590
 1.6110	23.4980
 1.6120	23.5370
 1.6130	23.5750
 1.6140	23.6130
 1.6150	23.6500
 1.6160	23.6850
 1.6170	23.7200
 1.6180	23.7530
 1.6190	23.7870
 1.6200	23.8210
 1.6210	23.8540
 1.6220	23.8860
 1.6230	23.9170
 1.6240	23.9460
 1.6250	23.9760
 1.6260	24.0060
 1.6270	24.0360
 1.6280	24.0640
 1.6290	24.0920
 1.6300	24.1190
 1.6310	24.1450
 1.6320	24.1690
 1.6330	24.1940
 1.6340	24.2190
 1.6350	24.2440
 1.6360	24.2690
 1.6370	24.2920
 1.6380	24.3140
 1.6390	24.3350
 1.6400	24.3540
 1.6410	24.3740
 1.6420	24.3940
 1.6430	24.4120
 1.6440	24.4310
 1.6450	24.4480
 1.6460	24.4640
 1.6470	24.4800
 1.6480	24.4940
 1.6490	24.5090
 1.6500	24.5230
 1.6510	24.5350
 1.6520	24.5480
 1.6530	24.5600
 1.6540	24.5710
 1.6550	24.5800
 1.6560	24.5870
 1.6570	24.5940
 1.6580	24.6000
 1.6590	24.6040
 1.6600	24.6090
 1.6610	24.6120
 1.6620	24.6130
 1.6630	24.6160
 1.6640	24.6200
 1.6650	24.6220
 1.6660	24.6220
 1.6670	24.6200
 1.6680	24.6170
 1.6690	24.6140
 1.6700	24.6110
 1.6710	24.6060
 1.6720	24.5970
 1.6730	24.5880
 1.6740	24.5780
 1.6750	24.5670
 1.6760	24.5570
 1.6770	24.5450
 1.6780	24.5310
 1.6790	24.5160
 1.6800	24.4990
 1.6810	24.4830
 1.6820	24.4650
 1.6830	24.4450
 1.6840	24.4230
 1.6850	24.3980
 1.6860	24.3730
 1.6870	24.3490
 1.6880	24.3240
 1.6890	24.2990
 1.6900	24.2730
 1.6910	24.2430
 1.6920	24.2150
 1.6930	24.1850
 1.6940	24.1560
 1.6950	24.1280
 1.6960	24.0990
 1.6970	24.0700
 1.6980	24.0390
 1.6990	24.0080
 1.7000	23.9770
 1.7010	23.9460
 1.7020	23.9130
 1.7030	23.8770
 1.7040	23.8430
 1.7050	23.8070
 1.7060	23.7710
 1.7070	23.7360
 1.7080	23.6990
 1.7090	23.6580
 1.7100	23.6200
 1.7110	23.5810
 1.7120	23.5440
 1.7130	23.5080
 1.7140	23.4710
 1.7150	23.4360
 1.7160	23.4020
 1.7170	23.3690
 1.7180	23.3340
 1.7190	23.2990
 1.7200	23.2640
 1.7210	23.2290
 1.7220	23.1940
 1.7230	23.1590
 1.7240	23.1250
 1.7250	23.0900
 1.7260	23.0570
 1.7270	23.0260
 1.7280	22.9930
 1.7290	22.9620
 1.7300	22.9310
 1.7310	22.9020
 1.7320	22.8740
 1.7330	22.8470
 1.7340	22.8230
 1.7350	22.7970
 1.7360	22.7730
 1.7370	22.7450
 1.7380	22.7150
 1.7390	22.6840
 1.7400	22.6510
 1.7410	22.6160
 1.7420	22.5800
 1.7430	22.5410
 1.7440	22.5000
 1.7450	22.4560
 1.7460	22.4080
 1.7470	22.3620
 1.7480	22.3160
 1.7490	22.2670
 1.7500	22.2200
 1.7510	22.1700
 1.7520	22.1150
 1.7530	22.0630
 1.7540	22.0130
 1.7550	21.9630
 1.7560	21.9120
 1.7570	21.8630
 1.7580	21.8140
 1.7590	21.7650
 1.7600	21.7170
 1.7610	21.6670
 1.7620	21.6200
 1.7630	21.5760
 1.7640	21.5330
 1.7650	21.4920
 1.7660	21.4520
 1.7670	21.4130
 1.7680	21.3750
 1.7690	21.3390
 1.7700	21.3040
 1.7710	21.2720
 1.7720	21.2390
 1.7730	21.2070
 1.7740	21.1770
 1.7750	21.1480
 1.7760	21.1210
 1.7770	21.0950
 1.7780	21.0700
 1.7790	21.0460
 1.7800	21.0250
 1.7810	21.0060
 1.7820	20.9880
 1.7830	20.9730
 1.7840	20.9580
 1.7850	20.9430
 1.7860	20.9320
 1.7870	20.9230
 1.7880	20.9140
 1.7890	20.9110
 1.7900	20.9070
 1.7910	20.9030
 1.7920	20.9000
 1.7930	20.8980
 1.7940	20.8940
 1.7950	20.8930
 1.7960	20.8950
 1.7970	20.8970
 1.7980	20.9010
 1.7990	20.9040
 1.8000	20.9070
 1.8010	20.9100
 1.8020	20.9130
 1.8030	20.9160
 1.8040	20.9200
 1.8050	20.9240
 1.8060	20.9270
 1.8070	20.9320
 1.8080	20.9370
 1.8090	20.9420
 1.8100	20.9480
 1.8110	20.9500
 1.8120	20.9520
 1.8130	20.9530
 1.8140	20.9550
 1.8150	20.9580
 1.8160	20.9570
 1.8170	20.9580
 1.8180	20.9580
 1.8190	20.9590
 1.8200	20.9580
 1.8210	20.9550
 1.8220	20.9510
 1.8230	20.9460
 1.8240	20.9390
 1.8250	20.9320
 1.8260	20.9230
 1.8270	20.9130
 1.8280	20.9020
 1.8290	20.8910
 1.8300	20.8740
 1.8310	20.4970
 1.8320	20.4700
 1.8330	20.4460
 1.8340	20.4180
 1.8350	20.3880
 1.8360	20.3590
 1.8370	20.3210
 1.8380	20.2770
 1.8390	20.2300
 1.8400	20.1770
 1.8410	20.1210
 1.8420	20.0640
 1.8430	20.0040
 1.8440	19.9350
 1.8450	19.8600
 1.8460	19.7760
 1.8470	19.6870
 1.8480	19.5950
 1.8490	19.4940
 1.8500	19.3850
 1.8510	19.2710
 1.8520	19.1460
 1.8530	19.0060
 1.8540	18.8590
 1.8550	18.7030
 1.8560	18.5320
 1.8570	18.3520
 1.8580	18.1620
 1.8590	17.9610
 1.8600	17.7480
 1.8610	17.5240
 1.8620	17.2850
 1.8630	17.0330
 1.8640	16.7670
 1.8650	16.4890
 1.8660	16.1990
 1.8670	15.8950
 1.8680	15.5780
 1.8690	15.2470
 1.8700	14.9010
 1.8710	14.5420
 1.8720	14.1740
 1.8730	13.7950
 1.8740	13.4070
 1.8750	13.0150
 1.8760	12.6180
 1.8770	12.2170
 1.8780	11.8160
 1.8790	11.4130
 1.8800	11.0160
 1.8810	10.6210
 1.8820	10.2300
 1.8830	 9.8450
 1.8840	 9.4680
 1.8850	 9.0950
 1.8860	 8.7370
 1.8870	 8.3920
 1.8880	 8.0580
 1.8890	 7.7440
 1.8900	 7.4450
 1.8910	 7.1630
 1.8920	 6.8940
 1.8930	 6.6460
 1.8940	 6.4150
 1.8950	 6.2050
 1.8960	 6.0080
 1.8970	 5.8270
 1.8980	 5.6660
 1.8990	 5.5180
 1.9000	 5.3860
 1.9010	 5.2770
 1.9020	 5.1720
 1.9030	 5.0790
 1.9040	 4.9950
 1.9050	 4.9190
 1.9060	 4.8530
 1.9070	 4.7960
 1.9080	 4.7460
 1.9090	 4.7010
 1.9100	 4.6590
 1.9110	 4.6220
 1.9120	 4.5910
 1.9130	 4.5630
 1.9140	 4.5380
 1.9150	 4.5150
 1.9160	 4.4950
 1.9170	 4.4780
 1.9180	 4.4630
 1.9190	 4.4500
 1.9200	 4.4380
 1.9210	 4.4270
 1.9220	 4.4190
 1.9230	 4.4140
 1.9240	 4.4090
 1.9250	 4.4060
 1.9260	 4.4030
 1.9270	 4.4010
 1.9280	 4.3970
 1.9290	 4.3970
 1.9300	 4.3970
 1.9310	 4.3970
 1.9320	 4.4010
 1.9330	 4.4040
 1.9340	 4.4050
 1.9350	 4.4100
 1.9360	 4.4140
 1.9370	 4.4200
 1.9380	 4.4290
 1.9390	 4.4390
 1.9400	 4.4480
 1.9410	 4.4580
 1.9420	 4.4670
 1.9430	 4.4770
 1.9440	 4.4880
 1.9450	 4.5010
 1.9460	 4.5140
 1.9470	 4.5290
 1.9480	 4.5430
 1.9490	 4.5580
 1.9500	 4.5740
 1.9510	 4.5890
 1.9520	 4.6030
 1.9530	 4.6170
 1.9540	 4.6330
 1.9550	 4.6510
 1.9560	 4.6720
 1.9570	 4.6920
 1.9580	 4.7140
 1.9590	 4.7360
 1.9600	 4.7590
 1.9610	 4.7810
 1.9620	 4.8040
 1.9630	 4.8280
 1.9640	 4.8550
 1.9650	 4.8770
 1.9660	 4.9010
 1.9670	 4.9290
 1.9680	 4.9570
 1.9690	 4.9850
 1.9700	 5.0130
 1.9710	 5.0430
 1.9720	 5.0720
 1.9730	 5.1000
 1.9740	 5.1300
 1.9750	 5.1640
 1.9760	 5.1970
 1.9770	 5.2290
 1.9780	 5.2610
 1.9790	 5.2940
 1.9800	 5.3250
 1.9810	 5.3590
 1.9820	 5.3960
 1.9830	 5.4340
 1.9840	 5.4760
 1.9850	 5.5140
 1.9860	 5.5510
 1.9870	 5.5900
 1.9880	 5.6260
 1.9890	 5.6640
 1.9900	 5.7030
 1.9910	 5.7430
 1.9920	 5.7840
 1.9930	 5.8260
 1.9940	 5.8670
 1.9950	 5.9080
 1.9960	 5.9500
 1.9970	 5.9920
 1.9980	 6.0360
 1.9990	 6.0840
 2.0000	 6.1290
 2.0010	 6.1740
 2.0020	 6.2200
 2.0030	 6.2670
 2.0040	 6.3140
 2.0050	 6.3610
 2.0060	 6.4120
 2.0070	 6.4610
 2.0080	 6.5080
 2.0090	 6.5550
 2.0100	 6.6010
 2.0110	 6.6490
 2.0120	 6.6960
 2.0130	 6.7450
 2.0140	 6.7950
 2.0150	 6.8460
 2.0160	 6.8960
 2.0170	 6.9450
 2.0180	 6.9950
 2.0190	 7.0480
 2.0200	 7.0970
 2.0210	 7.1440
 2.0220	 7.1950
 2.0230	 7.2450
 2.0240	 7.2960
 2.0250	 7.3510
 2.0260	 7.4020
 2.0270	 7.4490
 2.0280	 7.4960
 2.0290	 7.5410
 2.0300	 7.5870
 2.0310	 7.6350
 2.0320	 7.6820
 2.0330	 7.7310
 2.0340	 7.7810
 2.0350	 7.8310
 2.0360	 7.8840
 2.0370	 7.9320
 2.0380	 7.9780
 2.0390	 8.0260
 2.0400	 8.0750
 2.0410	 8.1220
 2.0420	 8.1710
 2.0430	 8.2190
 2.0440	 8.2640
 2.0450	 8.3040
 2.0460	 8.3480
 2.0470	 8.3900
 2.0480	 8.4350
 2.0490	 8.4800
 2.0500	 8.5270
 2.0510	 8.5760
 2.0520	 8.6220
 2.0530	 8.6690
 2.0540	 8.7160
 2.0550	 8.7620
 2.0560	 8.8060
 2.0570	 8.8530
 2.0580	 8.9010
 2.0590	 8.9490
 2.0600	 8.9970
 2.0610	 9.0460
 2.0620	 9.0970
 2.0630	 9.1450
 2.0640	 9.1950
 2.0650	 9.2430
 2.0660	 9.2870
 2.0670	 9.3350
 2.0680	 9.3870
 2.0690	 9.4360
 2.0700	 9.4840
 2.0710	 9.5340
 2.0720	 9.5810
 2.0730	 9.6270
 2.0740	 9.6760
 2.0750	 9.7250
 2.0760	 9.7750
 2.0770	 9.8260
 2.0780	 9.8750
 2.0790	 9.9260
 2.0800	 9.9750
 2.0810	10.0210
 2.0820	10.0700
 2.0830	10.1210
 2.0840	10.1710
 2.0850	10.2220
 2.0860	10.2730
 2.0870	10.3230
 2.0880	10.3730
 2.0890	10.4230
 2.0900	10.4750
 2.0910	10.5230
 2.0920	10.5700
 2.0930	10.6190
 2.0940	10.6680
 2.0950	10.7160
 2.0960	10.7670
 2.0970	10.8140
 2.0980	10.8550
 2.0990	10.9000
 2.1000	10.9460
 2.1010	10.9930
 2.1020	11.0460
 2.1030	11.0940
 2.1040	11.1400
 2.1050	11.1850
 2.1060	11.2300
 2.1070	11.2700
 2.1080	11.3160
 2.1090	11.3650
 2.1100	11.4120
 2.1110	11.4620
 2.1120	11.5090
 2.1130	11.5540
 2.1140	11.5970
 2.1150	11.6360
 2.1160	11.6790
 2.1170	11.7210
 2.1180	11.7650
 2.1190	11.8140
 2.1200	11.8600
 2.1210	11.9060
 2.1220	11.9500
 2.1230	11.9910
 2.1240	12.0290
 2.1250	12.0670
 2.1260	12.1020
 2.1270	12.1390
 2.1280	12.1780
 2.1290	12.2160
 2.1300	12.2570
 2.1310	12.2940
 2.1320	12.3280
 2.1330	12.3620
 2.1340	12.3880
 2.1350	12.4210
 2.1360	12.4580
 2.1370	12.4930
 2.1380	12.5300
 2.1390	12.5640
 2.1400	12.5970
 2.1410	12.6250
 2.1420	12.6530
 2.1430	12.6790
 2.1440	12.7060
 2.1450	12.7310
 2.1460	12.7580
 2.1470	12.7870
 2.1480	12.8160
 2.1490	12.8470
 2.1500	12.8720
 2.1510	12.8950
 2.1520	12.9170
 2.1530	12.9360
 2.1540	12.9560
 2.1550	12.9780
 2.1560	12.9980
 2.1570	13.0170
 2.1580	13.0360
 2.1590	13.0540
 2.1600	13.0720
 2.1610	13.0870
 2.1620	13.1010
 2.1630	13.1170
 2.1640	13.1330
 2.1650	13.1480
 2.1660	13.1650
 2.1670	13.1820
 2.1680	13.1970
 2.1690	13.2140
 2.1700	13.2350
 2.1710	13.2490
 2.1720	13.2590
 2.1730	13.2730
 2.1740	13.2860
 2.1750	13.3010
 2.1760	13.3220
 2.1770	13.3400
 2.1780	13.3570
 2.1790	13.3740
 2.1800	13.3900
 2.1810	13.4050
 2.1820	13.4190
 2.1830	13.4300
 2.1840	13.4430
 2.1850	13.4530
 2.1860	13.4680
 2.1870	13.4860
 2.1880	13.5030
 2.1890	13.5240
 2.1900	13.5410
 2.1910	13.5560
 2.1920	13.5720
 2.1930	13.5890
 2.1940	13.6010
 2.1950	13.6120
 2.1960	13.6210
 2.1970	13.6210
 2.1980	13.6280
 2.1990	13.6360
 2.2000	13.6450
 2.2010	13.6570
 2.2020	13.6670
 2.2030	13.6780
 2.2040	13.6880
 2.2050	13.6980
 2.2060	13.7070
 2.2070	13.7110
 2.2080	13.7140
 2.2090	13.7120
 2.2100	13.7040
 2.2110	13.7030
 2.2120	13.7010
 2.2130	13.7010
 2.2140	13.7060
 2.2150	13.7070
 2.2160	13.7060
 2.2170	13.7050
 2.2180	13.7030
 2.2190	13.6990
 2.2200	13.6930
 2.2210	13.6880
 2.2220	13.6830
 2.2230	13.6740
 2.2240	13.6610
 2.2250	13.6500
 2.2260	13.6370
 2.2270	13.6220
 2.2280	13.6070
 2.2290	13.5890
 2.2300	13.5670
 2.2310	13.5440
 2.2320	13.5160
 2.2330	13.4870
 2.2340	13.4580
 2.2350	13.4260
 2.2360	13.3940
 2.2370	13.3640
 2.2380	13.3290
 2.2390	13.2900
 2.2400	13.2540
 2.2410	13.2160
 2.2420	13.1810
 2.2430	13.1470
 2.2440	13.1110
 2.2450	13.0760
 2.2460	13.0410
 2.2470	13.0050
 2.2480	12.9710
 2.2490	12.9390
 2.2500	12.9060
 2.2510	12.8750
 2.2520	12.8430
 2.2530	12.8100
 2.2540	12.7790
 2.2550	12.7500
 2.2560	12.7160
 2.2570	12.6820
 2.2580	12.6460
 2.2590	12.6040
 2.2600	12.5640
 2.2610	12.5210
 2.2620	12.4810
 2.2630	12.4430
 2.2640	12.4010
 2.2650	12.3580
 2.2660	12.3170
 2.2670	12.2740
 2.2680	12.2280
 2.2690	12.1840
 2.2700	12.1390
 2.2710	12.0980
 2.2720	12.0570
 2.2730	12.0210
 2.2740	11.9930
 2.2750	11.9550
 2.2760	11.9180
 2.2770	11.8770
 2.2780	11.8270
 2.2790	11.7850
 2.2800	11.7430
 2.2810	11.7060
 2.2820	11.6760
 2.2830	11.6420
 2.2840	11.6130
 2.2850	11.5800
 2.2860	11.5420
 2.2870	11.5060
 2.2880	11.4680
 2.2890	11.4290
 2.2900	11.3890
 2.2910	11.3480
 2.2920	11.3030
 2.2930	11.2610
 2.2940	11.2220
 2.2950	11.1790
 2.2960	11.1320
 2.2970	11.0880
 2.2980	11.0420
 2.2990	10.9970
 2.3000	10.9540
 2.3010	10.9100
 2.3020	10.8700
 2.3030	10.8230
 2.3040	10.7780
 2.3050	10.7390
 2.3060	10.6910
 2.3070	10.6440
 2.3080	10.5970
 2.3090	10.5510
 2.3100	10.5110
 2.3110	10.4780
 2.3120	10.4520
 2.3130	10.4360
 2.3140	10.4140
 2.3150	10.3950
 2.3160	10.3760
 2.3170	10.3580
 2.3180	10.3360
 2.3190	10.3160
 2.3200	10.2920
 2.3210	10.2600
 2.3220	10.2400
 2.3230	10.2300
 2.3240	10.2090
 2.3250	10.1930
 2.3260	10.1660
 2.3270	10.1230
 2.3280	10.0910
 2.3290	10.0600
 2.3300	10.0300
 2.3310	10.0070
 2.3320	 9.9790
 2.3330	 9.9490
 2.3340	 9.9150
 2.3350	 9.8770
 2.3360	 9.8400
 2.3370	 9.8010
 2.3380	 9.7630
 2.3390	 9.7270
 2.3400	 9.6890
 2.3410	 9.6520
 2.3420	 9.6120
 2.3430	 9.5680
 2.3440	 9.5300
 2.3450	 9.4950
 2.3460	 9.4580
 2.3470	 9.4270
 2.3480	 9.3900
 2.3490	 9.3410
 2.3500	 9.3030
 2.3510	 9.2720
 2.3520	 9.2370
 2.3530	 9.2050
 2.3540	 9.1750
 2.3550	 9.1370
 2.3560	 9.1060
 2.3570	 9.0860
 2.3580	 9.0610
 2.3590	 9.0360
 2.3600	 9.0120
 2.3610	 8.9850
 2.3620	 8.9540
 2.3630	 8.9260
 2.3640	 8.8900
 2.3650	 8.8520
 2.3660	 8.8230
 2.3670	 8.7970
 2.3680	 8.7710
 2.3690	 8.7410
 2.3700	 8.7120
 2.3710	 8.6840
 2.3720	 8.6540
 2.3730	 8.6240
 2.3740	 8.5930
 2.3750	 8.5520
 2.3760	 8.5070
 2.3770	 8.4700
 2.3780	 8.4270
 2.3790	 8.3800
 2.3800	 8.3420
 2.3810	 8.3170
 2.3820	 8.2900
 2.3830	 8.2670
 2.3840	 8.2450
 2.3850	 8.2100
 2.3860	 8.1820
 2.3870	 8.1630
 2.3880	 8.1420
 2.3890	 8.1120
 2.3900	 8.0760
 2.3910	 8.0380
 2.3920	 7.9990
 2.3930	 7.9640
 2.3940	 7.9340
 2.3950	 7.9030
 2.3960	 7.8690
 2.3970	 7.8390
 2.3980	 7.8120
 2.3990	 7.7800
 2.4000	 7.7460
 2.4010	 7.7040
 2.4020	 7.6650
 2.4030	 7.6310
 2.4040	 7.5980
 2.4050	 7.5680
 2.4060	 7.5370
 2.4070	 7.5020
 2.4080	 7.4690
 2.4090	 7.4410
 2.4100	 7.4180
 2.4110	 7.4020
 2.4120	 7.3700
 2.4130	 7.3230
 2.4140	 7.2870
 2.4150	 7.2560
 2.4160	 7.2300
 2.4170	 7.2140
 2.4180	 7.1840
 2.4190	 7.1470
 2.4200	 7.1130
 2.4210	 7.0900
 2.4220	 7.0740
 2.4230	 7.0430
 2.4240	 7.0070
 2.4250	 6.9700
 2.4260	 6.9330
 2.4270	 6.9030
 2.4280	 6.8740
 2.4290	 6.8500
 2.4300	 6.8290
 2.4310	 6.7940
 2.4320	 6.7590
 2.4330	 6.7210
 2.4340	 6.6850
 2.4350	 6.6710
 2.4360	 6.6670
 2.4370	 6.6510
 2.4380	 6.6170
 2.4390	 6.5840
 2.4400	 6.5400
 2.4410	 6.5010
 2.4420	 6.4730
 2.4430	 6.4210
 2.4440	 6.3960
 2.4450	 6.3830
 2.4460	 6.3450
 2.4470	 6.3200
 2.4480	 6.2740
 2.4490	 6.2200
 2.4500	 6.1940
 2.4510	 6.1640
 2.4520	 6.1550
 2.4530	 6.1480
 2.4540	 6.1300
 2.4550	 6.1390
 2.4560	 6.1240
 2.4570	 6.0980
 2.4580	 6.0940
 2.4590	 6.0560
 2.4600	 6.0280
 2.4610	 6.0060
 2.4620	 5.9670
 2.4630	 5.9660
 2.4640	 5.9560
 2.4650	 5.9340
 2.4660	 5.9140
 2.4670	 5.8630
 2.4680	 5.8270
 2.4690	 5.7940
 2.4700	 5.7740
 2.4710	 5.7520
 2.4720	 5.7350
 2.4730	 5.7420
 2.4740	 5.7240
 2.4750	 5.7020
 2.4760	 5.6970
 2.4770	 5.6860
 2.4780	 5.6630
 2.4790	 5.6390
 2.4800	 5.6240
 2.4810	 5.6000
 2.4820	 5.6090
 2.4830	 5.6070
 2.4840	 5.5820
 2.4850	 5.5720
 2.4860	 5.5820
 2.4870	 5.6080
 2.4880	 5.6030
 2.4890	 5.5770
 2.4900	 5.5310
 2.4910	 5.4930
 2.4920	 5.4770
 2.4930	 5.4630
 2.4940	 5.4900
 2.4950	 5.5280
 2.4960	 5.5590
 2.4970	 5.6230
 2.4980	 5.6280
 2.4990	 5.5630
 2.5000	 5.5550
