Name: Bambusa beecheyana
Type: vegetation
Class: Tree
Genus: Bambusa
Species: beecheyana
Sample No.: JPL238
Owner: JPL
Wavelength Range: VSWIR
Origin: 34.12719; -118.11127; WGS84
Collection Date: 10/6/2016
Description: Samples were collected at the Huntington Garden in San Marino California as part of a JPL Subcontract studying HyTES imagery. Samples were taken to JPL and processed within 48 hours of collection. The same leaves were processed in the Nicolet and then measured using the ASD.
Measurement: Bidirectional reflectance
First Column: X
Second Column: Y
X Units: Wavelength (micrometer)
Y Units: Reflectance (percentage)
First X Value: 0.35
Last X Value: 2.5
Number of X Values: 2151
Additional Information: vegetation.tree.bambusa.beecheyana.vswir.jpl238.jpl.asd.ancillary.txt

 0.3500	 4.6220
 0.3510	 4.4510
 0.3520	 4.3900
 0.3530	 4.4090
 0.3540	 4.4150
 0.3550	 4.3080
 0.3560	 4.3210
 0.3570	 4.4100
 0.3580	 4.4040
 0.3590	 4.3240
 0.3600	 4.2820
 0.3610	 4.3050
 0.3620	 4.2980
 0.3630	 4.2630
 0.3640	 4.2400
 0.3650	 4.2540
 0.3660	 4.2550
 0.3670	 4.2380
 0.3680	 4.2050
 0.3690	 4.1640
 0.3700	 4.1700
 0.3710	 4.1740
 0.3720	 4.1500
 0.3730	 4.1390
 0.3740	 4.2210
 0.3750	 4.2560
 0.3760	 4.1270
 0.3770	 4.1480
 0.3780	 4.1800
 0.3790	 4.1770
 0.3800	 4.1820
 0.3810	 4.1670
 0.3820	 4.1430
 0.3830	 4.1290
 0.3840	 4.1390
 0.3850	 4.1900
 0.3860	 4.2300
 0.3870	 4.1960
 0.3880	 4.1300
 0.3890	 4.1130
 0.3900	 4.1590
 0.3910	 4.2180
 0.3920	 4.2360
 0.3930	 4.2240
 0.3940	 4.2030
 0.3950	 4.1920
 0.3960	 4.1880
 0.3970	 4.1860
 0.3980	 4.1860
 0.3990	 4.2320
 0.4000	 4.2540
 0.4010	 4.2410
 0.4020	 4.2650
 0.4030	 4.2770
 0.4040	 4.2850
 0.4050	 4.3000
 0.4060	 4.3100
 0.4070	 4.3250
 0.4080	 4.3380
 0.4090	 4.3350
 0.4100	 4.3510
 0.4110	 4.3770
 0.4120	 4.4010
 0.4130	 4.4170
 0.4140	 4.4400
 0.4150	 4.4610
 0.4160	 4.4700
 0.4170	 4.4820
 0.4180	 4.4910
 0.4190	 4.4950
 0.4200	 4.4920
 0.4210	 4.5120
 0.4220	 4.5260
 0.4230	 4.5180
 0.4240	 4.5310
 0.4250	 4.5420
 0.4260	 4.5530
 0.4270	 4.5690
 0.4280	 4.5740
 0.4290	 4.5760
 0.4300	 4.5820
 0.4310	 4.5870
 0.4320	 4.5990
 0.4330	 4.6040
 0.4340	 4.5940
 0.4350	 4.5890
 0.4360	 4.5860
 0.4370	 4.5930
 0.4380	 4.6190
 0.4390	 4.6210
 0.4400	 4.6110
 0.4410	 4.6060
 0.4420	 4.6100
 0.4430	 4.6140
 0.4440	 4.6160
 0.4450	 4.6190
 0.4460	 4.6250
 0.4470	 4.6290
 0.4480	 4.6300
 0.4490	 4.6380
 0.4500	 4.6450
 0.4510	 4.6490
 0.4520	 4.6500
 0.4530	 4.6530
 0.4540	 4.6580
 0.4550	 4.6620
 0.4560	 4.6580
 0.4570	 4.6600
 0.4580	 4.6650
 0.4590	 4.6710
 0.4600	 4.6800
 0.4610	 4.6800
 0.4620	 4.6720
 0.4630	 4.6630
 0.4640	 4.6610
 0.4650	 4.6590
 0.4660	 4.6570
 0.4670	 4.6600
 0.4680	 4.6600
 0.4690	 4.6560
 0.4700	 4.6520
 0.4710	 4.6450
 0.4720	 4.6500
 0.4730	 4.6570
 0.4740	 4.6440
 0.4750	 4.6420
 0.4760	 4.6450
 0.4770	 4.6450
 0.4780	 4.6370
 0.4790	 4.6360
 0.4800	 4.6400
 0.4810	 4.6410
 0.4820	 4.6370
 0.4830	 4.6360
 0.4840	 4.6380
 0.4850	 4.6390
 0.4860	 4.6430
 0.4870	 4.6470
 0.4880	 4.6510
 0.4890	 4.6580
 0.4900	 4.6640
 0.4910	 4.6710
 0.4920	 4.6800
 0.4930	 4.6890
 0.4940	 4.7020
 0.4950	 4.7180
 0.4960	 4.7370
 0.4970	 4.7540
 0.4980	 4.7740
 0.4990	 4.8010
 0.5000	 4.8260
 0.5010	 4.8560
 0.5020	 4.8930
 0.5030	 4.9310
 0.5040	 4.9760
 0.5050	 5.0300
 0.5060	 5.0940
 0.5070	 5.1570
 0.5080	 5.2320
 0.5090	 5.3180
 0.5100	 5.4080
 0.5110	 5.5070
 0.5120	 5.6230
 0.5130	 5.7560
 0.5140	 5.8940
 0.5150	 6.0440
 0.5160	 6.2090
 0.5170	 6.3860
 0.5180	 6.5750
 0.5190	 6.7750
 0.5200	 6.9840
 0.5210	 7.1950
 0.5220	 7.4150
 0.5230	 7.6350
 0.5240	 7.8510
 0.5250	 8.0660
 0.5260	 8.2750
 0.5270	 8.4700
 0.5280	 8.6470
 0.5290	 8.8200
 0.5300	 8.9800
 0.5310	 9.1240
 0.5320	 9.2550
 0.5330	 9.3750
 0.5340	 9.4820
 0.5350	 9.5750
 0.5360	 9.6590
 0.5370	 9.7300
 0.5380	 9.7920
 0.5390	 9.8470
 0.5400	 9.9060
 0.5410	 9.9680
 0.5420	10.0260
 0.5430	10.0740
 0.5440	10.1100
 0.5450	10.1350
 0.5460	10.1490
 0.5470	10.1550
 0.5480	10.1600
 0.5490	10.1660
 0.5500	10.1750
 0.5510	10.1780
 0.5520	10.1710
 0.5530	10.1500
 0.5540	10.1150
 0.5550	10.0670
 0.5560	10.0070
 0.5570	 9.9340
 0.5580	 9.8490
 0.5590	 9.7530
 0.5600	 9.6470
 0.5610	 9.5360
 0.5620	 9.4170
 0.5630	 9.2900
 0.5640	 9.1580
 0.5650	 9.0260
 0.5660	 8.8920
 0.5670	 8.7540
 0.5680	 8.6100
 0.5690	 8.4650
 0.5700	 8.3190
 0.5710	 8.1720
 0.5720	 8.0330
 0.5730	 7.8980
 0.5740	 7.7700
 0.5750	 7.6480
 0.5760	 7.5350
 0.5770	 7.4300
 0.5780	 7.3320
 0.5790	 7.2410
 0.5800	 7.1560
 0.5810	 7.0780
 0.5820	 7.0070
 0.5830	 6.9370
 0.5840	 6.8740
 0.5850	 6.8180
 0.5860	 6.7590
 0.5870	 6.7060
 0.5880	 6.6560
 0.5890	 6.6060
 0.5900	 6.5630
 0.5910	 6.5230
 0.5920	 6.4860
 0.5930	 6.4520
 0.5940	 6.4240
 0.5950	 6.3980
 0.5960	 6.3720
 0.5970	 6.3510
 0.5980	 6.3280
 0.5990	 6.3060
 0.6000	 6.2860
 0.6010	 6.2600
 0.6020	 6.2260
 0.6030	 6.1900
 0.6040	 6.1580
 0.6050	 6.1200
 0.6060	 6.0750
 0.6070	 6.0260
 0.6080	 5.9770
 0.6090	 5.9270
 0.6100	 5.8790
 0.6110	 5.8330
 0.6120	 5.7820
 0.6130	 5.7230
 0.6140	 5.6610
 0.6150	 5.6090
 0.6160	 5.5590
 0.6170	 5.5110
 0.6180	 5.4690
 0.6190	 5.4300
 0.6200	 5.3960
 0.6210	 5.3650
 0.6220	 5.3360
 0.6230	 5.3130
 0.6240	 5.2930
 0.6250	 5.2760
 0.6260	 5.2630
 0.6270	 5.2500
 0.6280	 5.2370
 0.6290	 5.2290
 0.6300	 5.2200
 0.6310	 5.2110
 0.6320	 5.2010
 0.6330	 5.1850
 0.6340	 5.1670
 0.6350	 5.1470
 0.6360	 5.1200
 0.6370	 5.0870
 0.6380	 5.0490
 0.6390	 5.0110
 0.6400	 4.9730
 0.6410	 4.9350
 0.6420	 4.8940
 0.6430	 4.8510
 0.6440	 4.8130
 0.6450	 4.7780
 0.6460	 4.7440
 0.6470	 4.7090
 0.6480	 4.6790
 0.6490	 4.6530
 0.6500	 4.6310
 0.6510	 4.6160
 0.6520	 4.6040
 0.6530	 4.5920
 0.6540	 4.5800
 0.6550	 4.5700
 0.6560	 4.5590
 0.6570	 4.5460
 0.6580	 4.5300
 0.6590	 4.5160
 0.6600	 4.5030
 0.6610	 4.4910
 0.6620	 4.4800
 0.6630	 4.4730
 0.6640	 4.4690
 0.6650	 4.4690
 0.6660	 4.4720
 0.6670	 4.4790
 0.6680	 4.4920
 0.6690	 4.5100
 0.6700	 4.5300
 0.6710	 4.5550
 0.6720	 4.5860
 0.6730	 4.6220
 0.6740	 4.6610
 0.6750	 4.7020
 0.6760	 4.7470
 0.6770	 4.8010
 0.6780	 4.8590
 0.6790	 4.9190
 0.6800	 4.9800
 0.6810	 5.0430
 0.6820	 5.1090
 0.6830	 5.1740
 0.6840	 5.2390
 0.6850	 5.3000
 0.6860	 5.3570
 0.6870	 5.4170
 0.6880	 5.4860
 0.6890	 5.5700
 0.6900	 5.6730
 0.6910	 5.8060
 0.6920	 5.9820
 0.6930	 6.2110
 0.6940	 6.4990
 0.6950	 6.8520
 0.6960	 7.2720
 0.6970	 7.7590
 0.6980	 8.3110
 0.6990	 8.9220
 0.7000	 9.5870
 0.7010	10.2940
 0.7020	11.0270
 0.7030	11.7850
 0.7040	12.5590
 0.7050	13.3430
 0.7060	14.1310
 0.7070	14.9210
 0.7080	15.7090
 0.7090	16.5010
 0.7100	17.2910
 0.7110	18.0840
 0.7120	18.8820
 0.7130	19.6780
 0.7140	20.4770
 0.7150	21.2790
 0.7160	22.0820
 0.7170	22.8840
 0.7180	23.6880
 0.7190	24.4920
 0.7200	25.2930
 0.7210	26.0880
 0.7220	26.8780
 0.7230	27.6590
 0.7240	28.4300
 0.7250	29.1870
 0.7260	29.9300
 0.7270	30.6590
 0.7280	31.3690
 0.7290	32.0610
 0.7300	32.7320
 0.7310	33.3800
 0.7320	34.0070
 0.7330	34.6090
 0.7340	35.1840
 0.7350	35.7350
 0.7360	36.2590
 0.7370	36.7570
 0.7380	37.2270
 0.7390	37.6710
 0.7400	38.0880
 0.7410	38.4760
 0.7420	38.8360
 0.7430	39.1700
 0.7440	39.4780
 0.7450	39.7610
 0.7460	40.0180
 0.7470	40.2510
 0.7480	40.4640
 0.7490	40.6550
 0.7500	40.8270
 0.7510	40.9800
 0.7520	41.1180
 0.7530	41.2420
 0.7540	41.3520
 0.7550	41.4490
 0.7560	41.5360
 0.7570	41.6110
 0.7580	41.6800
 0.7590	41.7400
 0.7600	41.7920
 0.7610	41.8380
 0.7620	41.8750
 0.7630	41.9060
 0.7640	41.9310
 0.7650	41.9530
 0.7660	41.9680
 0.7670	41.9790
 0.7680	41.9880
 0.7690	41.9940
 0.7700	41.9970
 0.7710	41.9980
 0.7720	41.9970
 0.7730	41.9960
 0.7740	41.9950
 0.7750	41.9930
 0.7760	41.9910
 0.7770	41.9870
 0.7780	41.9830
 0.7790	41.9790
 0.7800	41.9770
 0.7810	41.9750
 0.7820	41.9730
 0.7830	41.9710
 0.7840	41.9680
 0.7850	41.9640
 0.7860	41.9580
 0.7870	41.9530
 0.7880	41.9460
 0.7890	41.9400
 0.7900	41.9340
 0.7910	41.9250
 0.7920	41.9200
 0.7930	41.9150
 0.7940	41.9080
 0.7950	41.8970
 0.7960	41.8870
 0.7970	41.8790
 0.7980	41.8700
 0.7990	41.8590
 0.8000	41.8460
 0.8010	41.8330
 0.8020	41.8200
 0.8030	41.8070
 0.8040	41.7940
 0.8050	41.7810
 0.8060	41.7670
 0.8070	41.7540
 0.8080	41.7410
 0.8090	41.7250
 0.8100	41.7090
 0.8110	41.6930
 0.8120	41.6780
 0.8130	41.6590
 0.8140	41.6440
 0.8150	41.6260
 0.8160	41.6040
 0.8170	41.5870
 0.8180	41.5720
 0.8190	41.5570
 0.8200	41.5390
 0.8210	41.5190
 0.8220	41.5000
 0.8230	41.4820
 0.8240	41.4640
 0.8250	41.4490
 0.8260	41.4360
 0.8270	41.4190
 0.8280	41.4000
 0.8290	41.3820
 0.8300	41.3640
 0.8310	41.3450
 0.8320	41.3290
 0.8330	41.3140
 0.8340	41.2990
 0.8350	41.2840
 0.8360	41.2690
 0.8370	41.2550
 0.8380	41.2420
 0.8390	41.2290
 0.8400	41.2180
 0.8410	41.2080
 0.8420	41.1990
 0.8430	41.1890
 0.8440	41.1780
 0.8450	41.1660
 0.8460	41.1550
 0.8470	41.1460
 0.8480	41.1400
 0.8490	41.1340
 0.8500	41.1260
 0.8510	41.1170
 0.8520	41.1100
 0.8530	41.1050
 0.8540	41.1030
 0.8550	41.0980
 0.8560	41.0930
 0.8570	41.0890
 0.8580	41.0850
 0.8590	41.0820
 0.8600	41.0800
 0.8610	41.0780
 0.8620	41.0790
 0.8630	41.0770
 0.8640	41.0760
 0.8650	41.0760
 0.8660	41.0770
 0.8670	41.0770
 0.8680	41.0770
 0.8690	41.0780
 0.8700	41.0840
 0.8710	41.0880
 0.8720	41.0880
 0.8730	41.0880
 0.8740	41.0940
 0.8750	41.0970
 0.8760	41.0980
 0.8770	41.1070
 0.8780	41.1100
 0.8790	41.1110
 0.8800	41.1150
 0.8810	41.1220
 0.8820	41.1280
 0.8830	41.1300
 0.8840	41.1310
 0.8850	41.1360
 0.8860	41.1410
 0.8870	41.1460
 0.8880	41.1510
 0.8890	41.1520
 0.8900	41.1560
 0.8910	41.1630
 0.8920	41.1660
 0.8930	41.1740
 0.8940	41.1770
 0.8950	41.1780
 0.8960	41.1850
 0.8970	41.1900
 0.8980	41.1930
 0.8990	41.1950
 0.9000	41.1990
 0.9010	41.2050
 0.9020	41.2090
 0.9030	41.2110
 0.9040	41.2120
 0.9050	41.2200
 0.9060	41.2270
 0.9070	41.2300
 0.9080	41.2280
 0.9090	41.2320
 0.9100	41.2370
 0.9110	41.2380
 0.9120	41.2410
 0.9130	41.2390
 0.9140	41.2400
 0.9150	41.2480
 0.9160	41.2430
 0.9170	41.2380
 0.9180	41.2360
 0.9190	41.2340
 0.9200	41.2370
 0.9210	41.2360
 0.9220	41.2300
 0.9230	41.2240
 0.9240	41.2240
 0.9250	41.2210
 0.9260	41.2140
 0.9270	41.2050
 0.9280	41.2000
 0.9290	41.1960
 0.9300	41.1860
 0.9310	41.1660
 0.9320	41.1600
 0.9330	41.1550
 0.9340	41.1470
 0.9350	41.1440
 0.9360	41.1320
 0.9370	41.1130
 0.9380	41.0950
 0.9390	41.0880
 0.9400	41.0760
 0.9410	41.0610
 0.9420	41.0460
 0.9430	41.0290
 0.9440	41.0170
 0.9450	41.0070
 0.9460	40.9940
 0.9470	40.9720
 0.9480	40.9510
 0.9490	40.9270
 0.9500	40.9000
 0.9510	40.8810
 0.9520	40.8540
 0.9530	40.8260
 0.9540	40.8040
 0.9550	40.7720
 0.9560	40.7480
 0.9570	40.7300
 0.9580	40.7110
 0.9590	40.6850
 0.9600	40.6570
 0.9610	40.6310
 0.9620	40.6140
 0.9630	40.6020
 0.9640	40.5870
 0.9650	40.5710
 0.9660	40.5590
 0.9670	40.5450
 0.9680	40.5340
 0.9690	40.5210
 0.9700	40.5050
 0.9710	40.5050
 0.9720	40.5010
 0.9730	40.4900
 0.9740	40.4760
 0.9750	40.4590
 0.9760	40.4540
 0.9770	40.4500
 0.9780	40.4310
 0.9790	40.4180
 0.9800	40.4050
 0.9810	40.3970
 0.9820	40.3990
 0.9830	40.3930
 0.9840	40.3860
 0.9850	40.3860
 0.9860	40.3940
 0.9870	40.3900
 0.9880	40.3860
 0.9890	40.3760
 0.9900	40.3540
 0.9910	40.3650
 0.9920	40.3720
 0.9930	40.3690
 0.9940	40.3680
 0.9950	40.3600
 0.9960	40.3570
 0.9970	40.3510
 0.9980	40.3390
 0.9990	40.3410
 1.0000	40.3430
 1.0010	41.0470
 1.0020	41.0420
 1.0030	41.0380
 1.0040	41.0370
 1.0050	41.0380
 1.0060	41.0400
 1.0070	41.0440
 1.0080	41.0460
 1.0090	41.0480
 1.0100	41.0480
 1.0110	41.0430
 1.0120	41.0440
 1.0130	41.0490
 1.0140	41.0500
 1.0150	41.0510
 1.0160	41.0530
 1.0170	41.0520
 1.0180	41.0470
 1.0190	41.0490
 1.0200	41.0520
 1.0210	41.0490
 1.0220	41.0460
 1.0230	41.0480
 1.0240	41.0550
 1.0250	41.0570
 1.0260	41.0640
 1.0270	41.0660
 1.0280	41.0590
 1.0290	41.0590
 1.0300	41.0620
 1.0310	41.0640
 1.0320	41.0670
 1.0330	41.0710
 1.0340	41.0740
 1.0350	41.0760
 1.0360	41.0760
 1.0370	41.0760
 1.0380	41.0780
 1.0390	41.0790
 1.0400	41.0810
 1.0410	41.0880
 1.0420	41.0900
 1.0430	41.0890
 1.0440	41.0900
 1.0450	41.0920
 1.0460	41.0920
 1.0470	41.0930
 1.0480	41.0940
 1.0490	41.0950
 1.0500	41.0950
 1.0510	41.0960
 1.0520	41.0950
 1.0530	41.0950
 1.0540	41.0930
 1.0550	41.0910
 1.0560	41.0890
 1.0570	41.0880
 1.0580	41.0870
 1.0590	41.0850
 1.0600	41.0830
 1.0610	41.0820
 1.0620	41.0780
 1.0630	41.0770
 1.0640	41.0820
 1.0650	41.0810
 1.0660	41.0790
 1.0670	41.0760
 1.0680	41.0730
 1.0690	41.0660
 1.0700	41.0630
 1.0710	41.0630
 1.0720	41.0600
 1.0730	41.0560
 1.0740	41.0520
 1.0750	41.0460
 1.0760	41.0420
 1.0770	41.0400
 1.0780	41.0360
 1.0790	41.0320
 1.0800	41.0280
 1.0810	41.0240
 1.0820	41.0200
 1.0830	41.0150
 1.0840	41.0110
 1.0850	41.0080
 1.0860	41.0040
 1.0870	41.0000
 1.0880	40.9990
 1.0890	40.9940
 1.0900	40.9850
 1.0910	40.9800
 1.0920	40.9750
 1.0930	40.9700
 1.0940	40.9660
 1.0950	40.9610
 1.0960	40.9560
 1.0970	40.9510
 1.0980	40.9470
 1.0990	40.9410
 1.1000	40.9360
 1.1010	40.9300
 1.1020	40.9240
 1.1030	40.9180
 1.1040	40.9130
 1.1050	40.9090
 1.1060	40.9040
 1.1070	40.8990
 1.1080	40.8940
 1.1090	40.8870
 1.1100	40.8820
 1.1110	40.8770
 1.1120	40.8710
 1.1130	40.8620
 1.1140	40.8540
 1.1150	40.8470
 1.1160	40.8390
 1.1170	40.8330
 1.1180	40.8250
 1.1190	40.8160
 1.1200	40.8060
 1.1210	40.7950
 1.1220	40.7830
 1.1230	40.7690
 1.1240	40.7530
 1.1250	40.7370
 1.1260	40.7220
 1.1270	40.7030
 1.1280	40.6840
 1.1290	40.6600
 1.1300	40.6310
 1.1310	40.6020
 1.1320	40.5710
 1.1330	40.5380
 1.1340	40.5030
 1.1350	40.4660
 1.1360	40.4270
 1.1370	40.3850
 1.1380	40.3440
 1.1390	40.2990
 1.1400	40.2520
 1.1410	40.2030
 1.1420	40.1530
 1.1430	40.1020
 1.1440	40.0510
 1.1450	39.9990
 1.1460	39.9480
 1.1470	39.8960
 1.1480	39.8480
 1.1490	39.7990
 1.1500	39.7540
 1.1510	39.7120
 1.1520	39.6700
 1.1530	39.6270
 1.1540	39.5880
 1.1550	39.5530
 1.1560	39.5180
 1.1570	39.4860
 1.1580	39.4600
 1.1590	39.4350
 1.1600	39.4110
 1.1610	39.3910
 1.1620	39.3720
 1.1630	39.3520
 1.1640	39.3350
 1.1650	39.3210
 1.1660	39.3090
 1.1670	39.2960
 1.1680	39.2840
 1.1690	39.2720
 1.1700	39.2610
 1.1710	39.2500
 1.1720	39.2400
 1.1730	39.2290
 1.1740	39.2190
 1.1750	39.2080
 1.1760	39.1970
 1.1770	39.1870
 1.1780	39.1760
 1.1790	39.1640
 1.1800	39.1530
 1.1810	39.1410
 1.1820	39.1290
 1.1830	39.1190
 1.1840	39.1080
 1.1850	39.0970
 1.1860	39.0860
 1.1870	39.0740
 1.1880	39.0620
 1.1890	39.0490
 1.1900	39.0380
 1.1910	39.0300
 1.1920	39.0220
 1.1930	39.0160
 1.1940	39.0080
 1.1950	39.0010
 1.1960	38.9940
 1.1970	38.9880
 1.1980	38.9820
 1.1990	38.9770
 1.2000	38.9740
 1.2010	38.9720
 1.2020	38.9730
 1.2030	38.9720
 1.2040	38.9700
 1.2050	38.9690
 1.2060	38.9680
 1.2070	38.9670
 1.2080	38.9680
 1.2090	38.9690
 1.2100	38.9700
 1.2110	38.9730
 1.2120	38.9760
 1.2130	38.9790
 1.2140	38.9820
 1.2150	38.9860
 1.2160	38.9880
 1.2170	38.9920
 1.2180	38.9980
 1.2190	39.0020
 1.2200	39.0070
 1.2210	39.0130
 1.2220	39.0170
 1.2230	39.0200
 1.2240	39.0250
 1.2250	39.0310
 1.2260	39.0350
 1.2270	39.0410
 1.2280	39.0470
 1.2290	39.0510
 1.2300	39.0560
 1.2310	39.0600
 1.2320	39.0630
 1.2330	39.0650
 1.2340	39.0680
 1.2350	39.0710
 1.2360	39.0750
 1.2370	39.0780
 1.2380	39.0830
 1.2390	39.0870
 1.2400	39.0910
 1.2410	39.0950
 1.2420	39.0970
 1.2430	39.0970
 1.2440	39.0970
 1.2450	39.0980
 1.2460	39.1000
 1.2470	39.1030
 1.2480	39.1050
 1.2490	39.1070
 1.2500	39.1070
 1.2510	39.1070
 1.2520	39.1080
 1.2530	39.1060
 1.2540	39.1050
 1.2550	39.1050
 1.2560	39.1030
 1.2570	39.1020
 1.2580	39.1010
 1.2590	39.0980
 1.2600	39.0940
 1.2610	39.0910
 1.2620	39.0890
 1.2630	39.0850
 1.2640	39.0820
 1.2650	39.0780
 1.2660	39.0720
 1.2670	39.0670
 1.2680	39.0610
 1.2690	39.0560
 1.2700	39.0520
 1.2710	39.0460
 1.2720	39.0400
 1.2730	39.0330
 1.2740	39.0260
 1.2750	39.0190
 1.2760	39.0120
 1.2770	39.0050
 1.2780	38.9980
 1.2790	38.9900
 1.2800	38.9800
 1.2810	38.9700
 1.2820	38.9590
 1.2830	38.9480
 1.2840	38.9360
 1.2850	38.9230
 1.2860	38.9120
 1.2870	38.8990
 1.2880	38.8840
 1.2890	38.8680
 1.2900	38.8520
 1.2910	38.8350
 1.2920	38.8170
 1.2930	38.8000
 1.2940	38.7790
 1.2950	38.7570
 1.2960	38.7330
 1.2970	38.7080
 1.2980	38.6840
 1.2990	38.6610
 1.3000	38.6370
 1.3010	38.6120
 1.3020	38.5850
 1.3030	38.5570
 1.3040	38.5270
 1.3050	38.4960
 1.3060	38.4650
 1.3070	38.4330
 1.3080	38.4010
 1.3090	38.3680
 1.3100	38.3330
 1.3110	38.2980
 1.3120	38.2650
 1.3130	38.2290
 1.3140	38.1920
 1.3150	38.1560
 1.3160	38.1170
 1.3170	38.0730
 1.3180	38.0310
 1.3190	37.9890
 1.3200	37.9440
 1.3210	37.9010
 1.3220	37.8570
 1.3230	37.8110
 1.3240	37.7650
 1.3250	37.7170
 1.3260	37.6680
 1.3270	37.6190
 1.3280	37.5680
 1.3290	37.5150
 1.3300	37.4610
 1.3310	37.4060
 1.3320	37.3510
 1.3330	37.2950
 1.3340	37.2400
 1.3350	37.1820
 1.3360	37.1240
 1.3370	37.0650
 1.3380	37.0070
 1.3390	36.9490
 1.3400	36.8920
 1.3410	36.8360
 1.3420	36.7780
 1.3430	36.7190
 1.3440	36.6620
 1.3450	36.6050
 1.3460	36.5490
 1.3470	36.4930
 1.3480	36.4380
 1.3490	36.3820
 1.3500	36.3270
 1.3510	36.2700
 1.3520	36.2140
 1.3530	36.1580
 1.3540	36.1020
 1.3550	36.0450
 1.3560	35.9880
 1.3570	35.9300
 1.3580	35.8710
 1.3590	35.8110
 1.3600	35.7500
 1.3610	35.6890
 1.3620	35.6240
 1.3630	35.5560
 1.3640	35.4860
 1.3650	35.4120
 1.3660	35.3350
 1.3670	35.2560
 1.3680	35.1710
 1.3690	35.0800
 1.3700	34.9790
 1.3710	34.8720
 1.3720	34.7580
 1.3730	34.6350
 1.3740	34.5040
 1.3750	34.3620
 1.3760	34.2060
 1.3770	34.0390
 1.3780	33.8570
 1.3790	33.6600
 1.3800	33.4510
 1.3810	33.2230
 1.3820	32.9820
 1.3830	32.7290
 1.3840	32.4570
 1.3850	32.1690
 1.3860	31.8660
 1.3870	31.5440
 1.3880	31.2130
 1.3890	30.8680
 1.3900	30.5120
 1.3910	30.1500
 1.3920	29.7750
 1.3930	29.3920
 1.3940	29.0030
 1.3950	28.6060
 1.3960	28.2070
 1.3970	27.8100
 1.3980	27.4130
 1.3990	27.0240
 1.4000	26.6390
 1.4010	26.2570
 1.4020	25.8850
 1.4030	25.5200
 1.4040	25.1660
 1.4050	24.8250
 1.4060	24.4960
 1.4070	24.1830
 1.4080	23.8840
 1.4090	23.5970
 1.4100	23.3250
 1.4110	23.0660
 1.4120	22.8190
 1.4130	22.5870
 1.4140	22.3680
 1.4150	22.1650
 1.4160	21.9730
 1.4170	21.7940
 1.4180	21.6290
 1.4190	21.4730
 1.4200	21.3270
 1.4210	21.1920
 1.4220	21.0660
 1.4230	20.9500
 1.4240	20.8430
 1.4250	20.7420
 1.4260	20.6500
 1.4270	20.5650
 1.4280	20.4880
 1.4290	20.4160
 1.4300	20.3520
 1.4310	20.2940
 1.4320	20.2420
 1.4330	20.1940
 1.4340	20.1520
 1.4350	20.1150
 1.4360	20.0840
 1.4370	20.0570
 1.4380	20.0340
 1.4390	20.0150
 1.4400	20.0000
 1.4410	19.9870
 1.4420	19.9780
 1.4430	19.9700
 1.4440	19.9650
 1.4450	19.9640
 1.4460	19.9640
 1.4470	19.9660
 1.4480	19.9710
 1.4490	19.9760
 1.4500	19.9830
 1.4510	19.9920
 1.4520	20.0030
 1.4530	20.0150
 1.4540	20.0290
 1.4550	20.0460
 1.4560	20.0650
 1.4570	20.0870
 1.4580	20.1120
 1.4590	20.1390
 1.4600	20.1690
 1.4610	20.2050
 1.4620	20.2440
 1.4630	20.2880
 1.4640	20.3360
 1.4650	20.3880
 1.4660	20.4450
 1.4670	20.5050
 1.4680	20.5710
 1.4690	20.6400
 1.4700	20.7120
 1.4710	20.7900
 1.4720	20.8700
 1.4730	20.9530
 1.4740	21.0410
 1.4750	21.1300
 1.4760	21.2220
 1.4770	21.3160
 1.4780	21.4100
 1.4790	21.5070
 1.4800	21.6050
 1.4810	21.7040
 1.4820	21.8050
 1.4830	21.9060
 1.4840	22.0090
 1.4850	22.1130
 1.4860	22.2180
 1.4870	22.3240
 1.4880	22.4290
 1.4890	22.5330
 1.4900	22.6380
 1.4910	22.7420
 1.4920	22.8470
 1.4930	22.9540
 1.4940	23.0590
 1.4950	23.1650
 1.4960	23.2710
 1.4970	23.3750
 1.4980	23.4800
 1.4990	23.5860
 1.5000	23.6910
 1.5010	23.7960
 1.5020	23.9010
 1.5030	24.0080
 1.5040	24.1120
 1.5050	24.2170
 1.5060	24.3200
 1.5070	24.4220
 1.5080	24.5230
 1.5090	24.6250
 1.5100	24.7250
 1.5110	24.8260
 1.5120	24.9260
 1.5130	25.0250
 1.5140	25.1250
 1.5150	25.2230
 1.5160	25.3210
 1.5170	25.4190
 1.5180	25.5170
 1.5190	25.6130
 1.5200	25.7070
 1.5210	25.7990
 1.5220	25.8910
 1.5230	25.9820
 1.5240	26.0720
 1.5250	26.1620
 1.5260	26.2510
 1.5270	26.3380
 1.5280	26.4250
 1.5290	26.5100
 1.5300	26.5920
 1.5310	26.6740
 1.5320	26.7540
 1.5330	26.8350
 1.5340	26.9150
 1.5350	26.9940
 1.5360	27.0720
 1.5370	27.1470
 1.5380	27.2220
 1.5390	27.2970
 1.5400	27.3700
 1.5410	27.4450
 1.5420	27.5180
 1.5430	27.5890
 1.5440	27.6600
 1.5450	27.7280
 1.5460	27.7970
 1.5470	27.8660
 1.5480	27.9340
 1.5490	28.0010
 1.5500	28.0670
 1.5510	28.1310
 1.5520	28.1950
 1.5530	28.2570
 1.5540	28.3190
 1.5550	28.3790
 1.5560	28.4390
 1.5570	28.4980
 1.5580	28.5580
 1.5590	28.6160
 1.5600	28.6710
 1.5610	28.7260
 1.5620	28.7790
 1.5630	28.8330
 1.5640	28.8860
 1.5650	28.9390
 1.5660	28.9890
 1.5670	29.0390
 1.5680	29.0890
 1.5690	29.1380
 1.5700	29.1870
 1.5710	29.2340
 1.5720	29.2800
 1.5730	29.3260
 1.5740	29.3710
 1.5750	29.4160
 1.5760	29.4630
 1.5770	29.5080
 1.5780	29.5530
 1.5790	29.5980
 1.5800	29.6420
 1.5810	29.6860
 1.5820	29.7300
 1.5830	29.7710
 1.5840	29.8150
 1.5850	29.8580
 1.5860	29.8990
 1.5870	29.9440
 1.5880	29.9860
 1.5890	30.0280
 1.5900	30.0720
 1.5910	30.1150
 1.5920	30.1580
 1.5930	30.2000
 1.5940	30.2420
 1.5950	30.2850
 1.5960	30.3260
 1.5970	30.3680
 1.5980	30.4070
 1.5990	30.4450
 1.6000	30.4850
 1.6010	30.5230
 1.6020	30.5630
 1.6030	30.6030
 1.6040	30.6420
 1.6050	30.6790
 1.6060	30.7140
 1.6070	30.7490
 1.6080	30.7830
 1.6090	30.8180
 1.6100	30.8530
 1.6110	30.8870
 1.6120	30.9210
 1.6130	30.9540
 1.6140	30.9860
 1.6150	31.0180
 1.6160	31.0490
 1.6170	31.0790
 1.6180	31.1110
 1.6190	31.1410
 1.6200	31.1690
 1.6210	31.1980
 1.6220	31.2260
 1.6230	31.2520
 1.6240	31.2790
 1.6250	31.3060
 1.6260	31.3320
 1.6270	31.3570
 1.6280	31.3810
 1.6290	31.4030
 1.6300	31.4240
 1.6310	31.4460
 1.6320	31.4670
 1.6330	31.4870
 1.6340	31.5080
 1.6350	31.5270
 1.6360	31.5440
 1.6370	31.5610
 1.6380	31.5760
 1.6390	31.5910
 1.6400	31.6060
 1.6410	31.6190
 1.6420	31.6330
 1.6430	31.6450
 1.6440	31.6570
 1.6450	31.6680
 1.6460	31.6780
 1.6470	31.6890
 1.6480	31.7000
 1.6490	31.7080
 1.6500	31.7150
 1.6510	31.7210
 1.6520	31.7240
 1.6530	31.7270
 1.6540	31.7290
 1.6550	31.7290
 1.6560	31.7260
 1.6570	31.7220
 1.6580	31.7180
 1.6590	31.7120
 1.6600	31.7060
 1.6610	31.7010
 1.6620	31.6980
 1.6630	31.6950
 1.6640	31.6940
 1.6650	31.6910
 1.6660	31.6860
 1.6670	31.6800
 1.6680	31.6740
 1.6690	31.6680
 1.6700	31.6600
 1.6710	31.6520
 1.6720	31.6410
 1.6730	31.6260
 1.6740	31.6100
 1.6750	31.5920
 1.6760	31.5720
 1.6770	31.5520
 1.6780	31.5310
 1.6790	31.5080
 1.6800	31.4830
 1.6810	31.4570
 1.6820	31.4280
 1.6830	31.3980
 1.6840	31.3670
 1.6850	31.3360
 1.6860	31.3050
 1.6870	31.2750
 1.6880	31.2440
 1.6890	31.2130
 1.6900	31.1830
 1.6910	31.1510
 1.6920	31.1210
 1.6930	31.0930
 1.6940	31.0650
 1.6950	31.0390
 1.6960	31.0110
 1.6970	30.9830
 1.6980	30.9560
 1.6990	30.9270
 1.7000	30.9000
 1.7010	30.8730
 1.7020	30.8470
 1.7030	30.8220
 1.7040	30.7950
 1.7050	30.7680
 1.7060	30.7410
 1.7070	30.7130
 1.7080	30.6840
 1.7090	30.6560
 1.7100	30.6270
 1.7110	30.5960
 1.7120	30.5660
 1.7130	30.5340
 1.7140	30.5030
 1.7150	30.4720
 1.7160	30.4400
 1.7170	30.4090
 1.7180	30.3780
 1.7190	30.3470
 1.7200	30.3170
 1.7210	30.2880
 1.7220	30.2570
 1.7230	30.2260
 1.7240	30.1960
 1.7250	30.1670
 1.7260	30.1370
 1.7270	30.1100
 1.7280	30.0830
 1.7290	30.0560
 1.7300	30.0270
 1.7310	30.0010
 1.7320	29.9740
 1.7330	29.9500
 1.7340	29.9320
 1.7350	29.9110
 1.7360	29.8910
 1.7370	29.8680
 1.7380	29.8410
 1.7390	29.8150
 1.7400	29.7910
 1.7410	29.7640
 1.7420	29.7370
 1.7430	29.7060
 1.7440	29.6710
 1.7450	29.6370
 1.7460	29.6010
 1.7470	29.5650
 1.7480	29.5280
 1.7490	29.4900
 1.7500	29.4510
 1.7510	29.4120
 1.7520	29.3720
 1.7530	29.3310
 1.7540	29.2900
 1.7550	29.2480
 1.7560	29.2070
 1.7570	29.1650
 1.7580	29.1230
 1.7590	29.0810
 1.7600	29.0400
 1.7610	29.0020
 1.7620	28.9640
 1.7630	28.9270
 1.7640	28.8920
 1.7650	28.8580
 1.7660	28.8250
 1.7670	28.7950
 1.7680	28.7650
 1.7690	28.7340
 1.7700	28.7060
 1.7710	28.6790
 1.7720	28.6530
 1.7730	28.6300
 1.7740	28.6070
 1.7750	28.5860
 1.7760	28.5640
 1.7770	28.5430
 1.7780	28.5230
 1.7790	28.5030
 1.7800	28.4850
 1.7810	28.4680
 1.7820	28.4540
 1.7830	28.4420
 1.7840	28.4310
 1.7850	28.4220
 1.7860	28.4120
 1.7870	28.4010
 1.7880	28.3940
 1.7890	28.3870
 1.7900	28.3850
 1.7910	28.3830
 1.7920	28.3830
 1.7930	28.3820
 1.7940	28.3780
 1.7950	28.3770
 1.7960	28.3780
 1.7970	28.3800
 1.7980	28.3850
 1.7990	28.3890
 1.8000	28.3920
 1.8010	28.3960
 1.8020	28.4000
 1.8030	28.4040
 1.8040	28.4090
 1.8050	28.4150
 1.8060	28.4220
 1.8070	28.4260
 1.8080	28.4320
 1.8090	28.4360
 1.8100	28.4350
 1.8110	28.4400
 1.8120	28.4420
 1.8130	28.4450
 1.8140	28.4480
 1.8150	28.4460
 1.8160	28.4460
 1.8170	28.4470
 1.8180	28.4460
 1.8190	28.4500
 1.8200	28.4500
 1.8210	28.4480
 1.8220	28.4450
 1.8230	28.4400
 1.8240	28.4340
 1.8250	28.4270
 1.8260	28.4200
 1.8270	28.4100
 1.8280	28.4020
 1.8290	28.3930
 1.8300	28.3840
 1.8310	28.4040
 1.8320	28.3860
 1.8330	28.3670
 1.8340	28.3470
 1.8350	28.3250
 1.8360	28.3050
 1.8370	28.2820
 1.8380	28.2500
 1.8390	28.2150
 1.8400	28.1770
 1.8410	28.1350
 1.8420	28.0880
 1.8430	28.0410
 1.8440	27.9880
 1.8450	27.9320
 1.8460	27.8680
 1.8470	27.7950
 1.8480	27.7180
 1.8490	27.6280
 1.8500	27.5330
 1.8510	27.4290
 1.8520	27.3220
 1.8530	27.2020
 1.8540	27.0770
 1.8550	26.9460
 1.8560	26.8000
 1.8570	26.6420
 1.8580	26.4740
 1.8590	26.2910
 1.8600	26.0930
 1.8610	25.8810
 1.8620	25.6570
 1.8630	25.4190
 1.8640	25.1670
 1.8650	24.9020
 1.8660	24.6170
 1.8670	24.3090
 1.8680	23.9830
 1.8690	23.6340
 1.8700	23.2660
 1.8710	22.8780
 1.8720	22.4790
 1.8730	22.0560
 1.8740	21.6170
 1.8750	21.1660
 1.8760	20.6920
 1.8770	20.2060
 1.8780	19.7080
 1.8790	19.1950
 1.8800	18.6780
 1.8810	18.1550
 1.8820	17.6180
 1.8830	17.0750
 1.8840	16.5300
 1.8850	15.9760
 1.8860	15.4270
 1.8870	14.8860
 1.8880	14.3460
 1.8890	13.8190
 1.8900	13.3080
 1.8910	12.8130
 1.8920	12.3280
 1.8930	11.8670
 1.8940	11.4240
 1.8950	11.0020
 1.8960	10.6010
 1.8970	10.2220
 1.8980	 9.8730
 1.8990	 9.5460
 1.9000	 9.2420
 1.9010	 8.9690
 1.9020	 8.7110
 1.9030	 8.4740
 1.9040	 8.2580
 1.9050	 8.0610
 1.9060	 7.8780
 1.9070	 7.7180
 1.9080	 7.5750
 1.9090	 7.4430
 1.9100	 7.3260
 1.9110	 7.2190
 1.9120	 7.1230
 1.9130	 7.0350
 1.9140	 6.9600
 1.9150	 6.8910
 1.9160	 6.8300
 1.9170	 6.7770
 1.9180	 6.7280
 1.9190	 6.6850
 1.9200	 6.6470
 1.9210	 6.6120
 1.9220	 6.5860
 1.9230	 6.5680
 1.9240	 6.5530
 1.9250	 6.5450
 1.9260	 6.5410
 1.9270	 6.5370
 1.9280	 6.5360
 1.9290	 6.5390
 1.9300	 6.5430
 1.9310	 6.5510
 1.9320	 6.5630
 1.9330	 6.5780
 1.9340	 6.5980
 1.9350	 6.6200
 1.9360	 6.6450
 1.9370	 6.6710
 1.9380	 6.6990
 1.9390	 6.7300
 1.9400	 6.7650
 1.9410	 6.8010
 1.9420	 6.8380
 1.9430	 6.8770
 1.9440	 6.9200
 1.9450	 6.9670
 1.9460	 7.0150
 1.9470	 7.0690
 1.9480	 7.1210
 1.9490	 7.1740
 1.9500	 7.2280
 1.9510	 7.2830
 1.9520	 7.3400
 1.9530	 7.3990
 1.9540	 7.4560
 1.9550	 7.5180
 1.9560	 7.5800
 1.9570	 7.6450
 1.9580	 7.7140
 1.9590	 7.7830
 1.9600	 7.8520
 1.9610	 7.9220
 1.9620	 7.9930
 1.9630	 8.0640
 1.9640	 8.1390
 1.9650	 8.2130
 1.9660	 8.2880
 1.9670	 8.3640
 1.9680	 8.4390
 1.9690	 8.5130
 1.9700	 8.5910
 1.9710	 8.6680
 1.9720	 8.7500
 1.9730	 8.8370
 1.9740	 8.9230
 1.9750	 9.0110
 1.9760	 9.0980
 1.9770	 9.1830
 1.9780	 9.2700
 1.9790	 9.3570
 1.9800	 9.4460
 1.9810	 9.5340
 1.9820	 9.6230
 1.9830	 9.7120
 1.9840	 9.8020
 1.9850	 9.8920
 1.9860	 9.9830
 1.9870	10.0740
 1.9880	10.1670
 1.9890	10.2580
 1.9900	10.3530
 1.9910	10.4470
 1.9920	10.5410
 1.9930	10.6360
 1.9940	10.7300
 1.9950	10.8230
 1.9960	10.9170
 1.9970	11.0110
 1.9980	11.1050
 1.9990	11.2000
 2.0000	11.2940
 2.0010	11.3880
 2.0020	11.4820
 2.0030	11.5720
 2.0040	11.6640
 2.0050	11.7540
 2.0060	11.8400
 2.0070	11.9300
 2.0080	12.0210
 2.0090	12.1110
 2.0100	12.2050
 2.0110	12.2950
 2.0120	12.3840
 2.0130	12.4710
 2.0140	12.5550
 2.0150	12.6390
 2.0160	12.7230
 2.0170	12.8050
 2.0180	12.8860
 2.0190	12.9660
 2.0200	13.0440
 2.0210	13.1210
 2.0220	13.1970
 2.0230	13.2700
 2.0240	13.3450
 2.0250	13.4190
 2.0260	13.4910
 2.0270	13.5620
 2.0280	13.6320
 2.0290	13.6980
 2.0300	13.7640
 2.0310	13.8280
 2.0320	13.8920
 2.0330	13.9520
 2.0340	14.0080
 2.0350	14.0660
 2.0360	14.1230
 2.0370	14.1790
 2.0380	14.2390
 2.0390	14.2940
 2.0400	14.3460
 2.0410	14.3960
 2.0420	14.4440
 2.0430	14.4900
 2.0440	14.5360
 2.0450	14.5810
 2.0460	14.6270
 2.0470	14.6710
 2.0480	14.7170
 2.0490	14.7640
 2.0500	14.8100
 2.0510	14.8570
 2.0520	14.9030
 2.0530	14.9480
 2.0540	14.9950
 2.0550	15.0400
 2.0560	15.0880
 2.0570	15.1370
 2.0580	15.1860
 2.0590	15.2360
 2.0600	15.2860
 2.0610	15.3390
 2.0620	15.3930
 2.0630	15.4460
 2.0640	15.5020
 2.0650	15.5550
 2.0660	15.6080
 2.0670	15.6610
 2.0680	15.7130
 2.0690	15.7650
 2.0700	15.8150
 2.0710	15.8680
 2.0720	15.9240
 2.0730	15.9790
 2.0740	16.0360
 2.0750	16.0960
 2.0760	16.1530
 2.0770	16.2110
 2.0780	16.2640
 2.0790	16.3140
 2.0800	16.3670
 2.0810	16.4180
 2.0820	16.4690
 2.0830	16.5190
 2.0840	16.5710
 2.0850	16.6250
 2.0860	16.6780
 2.0870	16.7300
 2.0880	16.7860
 2.0890	16.8370
 2.0900	16.8840
 2.0910	16.9350
 2.0920	16.9870
 2.0930	17.0380
 2.0940	17.0920
 2.0950	17.1410
 2.0960	17.1850
 2.0970	17.2320
 2.0980	17.2770
 2.0990	17.3230
 2.1000	17.3720
 2.1010	17.4200
 2.1020	17.4670
 2.1030	17.5130
 2.1040	17.5590
 2.1050	17.6040
 2.1060	17.6490
 2.1070	17.6930
 2.1080	17.7360
 2.1090	17.7790
 2.1100	17.8230
 2.1110	17.8670
 2.1120	17.9110
 2.1130	17.9540
 2.1140	17.9980
 2.1150	18.0380
 2.1160	18.0820
 2.1170	18.1300
 2.1180	18.1760
 2.1190	18.2210
 2.1200	18.2660
 2.1210	18.3080
 2.1220	18.3520
 2.1230	18.3950
 2.1240	18.4400
 2.1250	18.4800
 2.1260	18.5180
 2.1270	18.5570
 2.1280	18.5940
 2.1290	18.6300
 2.1300	18.6660
 2.1310	18.7010
 2.1320	18.7370
 2.1330	18.7690
 2.1340	18.7990
 2.1350	18.8290
 2.1360	18.8550
 2.1370	18.8840
 2.1380	18.9170
 2.1390	18.9460
 2.1400	18.9710
 2.1410	18.9960
 2.1420	19.0210
 2.1430	19.0420
 2.1440	19.0670
 2.1450	19.0960
 2.1460	19.1210
 2.1470	19.1450
 2.1480	19.1700
 2.1490	19.1960
 2.1500	19.2190
 2.1510	19.2430
 2.1520	19.2620
 2.1530	19.2760
 2.1540	19.2910
 2.1550	19.3000
 2.1560	19.3130
 2.1570	19.3250
 2.1580	19.3380
 2.1590	19.3550
 2.1600	19.3700
 2.1610	19.3810
 2.1620	19.3930
 2.1630	19.4030
 2.1640	19.4090
 2.1650	19.4190
 2.1660	19.4320
 2.1670	19.4430
 2.1680	19.4530
 2.1690	19.4660
 2.1700	19.4800
 2.1710	19.4940
 2.1720	19.5130
 2.1730	19.5280
 2.1740	19.5390
 2.1750	19.5520
 2.1760	19.5630
 2.1770	19.5780
 2.1780	19.5990
 2.1790	19.6150
 2.1800	19.6300
 2.1810	19.6470
 2.1820	19.6610
 2.1830	19.6750
 2.1840	19.6920
 2.1850	19.7140
 2.1860	19.7360
 2.1870	19.7590
 2.1880	19.7820
 2.1890	19.8110
 2.1900	19.8290
 2.1910	19.8410
 2.1920	19.8540
 2.1930	19.8600
 2.1940	19.8720
 2.1950	19.8880
 2.1960	19.9010
 2.1970	19.9150
 2.1980	19.9280
 2.1990	19.9430
 2.2000	19.9530
 2.2010	19.9630
 2.2020	19.9710
 2.2030	19.9730
 2.2040	19.9760
 2.2050	19.9830
 2.2060	19.9840
 2.2070	19.9830
 2.2080	19.9800
 2.2090	19.9740
 2.2100	19.9620
 2.2110	19.9520
 2.2120	19.9380
 2.2130	19.9270
 2.2140	19.9170
 2.2150	19.9070
 2.2160	19.9000
 2.2170	19.8900
 2.2180	19.8800
 2.2190	19.8670
 2.2200	19.8560
 2.2210	19.8400
 2.2220	19.8210
 2.2230	19.8000
 2.2240	19.7740
 2.2250	19.7490
 2.2260	19.7270
 2.2270	19.6990
 2.2280	19.6710
 2.2290	19.6360
 2.2300	19.5960
 2.2310	19.5500
 2.2320	19.4960
 2.2330	19.4370
 2.2340	19.3730
 2.2350	19.3010
 2.2360	19.2310
 2.2370	19.1590
 2.2380	19.0870
 2.2390	19.0110
 2.2400	18.9410
 2.2410	18.8710
 2.2420	18.8060
 2.2430	18.7470
 2.2440	18.6880
 2.2450	18.6310
 2.2460	18.5810
 2.2470	18.5350
 2.2480	18.4920
 2.2490	18.4560
 2.2500	18.4200
 2.2510	18.3860
 2.2520	18.3500
 2.2530	18.3160
 2.2540	18.2800
 2.2550	18.2430
 2.2560	18.2060
 2.2570	18.1740
 2.2580	18.1340
 2.2590	18.0900
 2.2600	18.0440
 2.2610	17.9940
 2.2620	17.9400
 2.2630	17.8890
 2.2640	17.8390
 2.2650	17.7890
 2.2660	17.7430
 2.2670	17.6950
 2.2680	17.6480
 2.2690	17.5990
 2.2700	17.5470
 2.2710	17.4990
 2.2720	17.4500
 2.2730	17.4050
 2.2740	17.3630
 2.2750	17.3220
 2.2760	17.2850
 2.2770	17.2480
 2.2780	17.2140
 2.2790	17.1780
 2.2800	17.1430
 2.2810	17.1080
 2.2820	17.0710
 2.2830	17.0360
 2.2840	17.0030
 2.2850	16.9730
 2.2860	16.9460
 2.2870	16.9160
 2.2880	16.8860
 2.2890	16.8550
 2.2900	16.8230
 2.2910	16.7870
 2.2920	16.7490
 2.2930	16.7090
 2.2940	16.6660
 2.2950	16.6200
 2.2960	16.5720
 2.2970	16.5240
 2.2980	16.4760
 2.2990	16.4220
 2.3000	16.3690
 2.3010	16.3130
 2.3020	16.2550
 2.3030	16.1940
 2.3040	16.1290
 2.3050	16.0660
 2.3060	16.0050
 2.3070	15.9440
 2.3080	15.8910
 2.3090	15.8370
 2.3100	15.7820
 2.3110	15.7350
 2.3120	15.6900
 2.3130	15.6480
 2.3140	15.6070
 2.3150	15.5690
 2.3160	15.5360
 2.3170	15.5050
 2.3180	15.4780
 2.3190	15.4570
 2.3200	15.4350
 2.3210	15.4170
 2.3220	15.3930
 2.3230	15.3690
 2.3240	15.3430
 2.3250	15.3110
 2.3260	15.2830
 2.3270	15.2590
 2.3280	15.2260
 2.3290	15.1890
 2.3300	15.1530
 2.3310	15.1120
 2.3320	15.0750
 2.3330	15.0460
 2.3340	15.0060
 2.3350	14.9560
 2.3360	14.9150
 2.3370	14.8720
 2.3380	14.8300
 2.3390	14.7970
 2.3400	14.7600
 2.3410	14.7230
 2.3420	14.6810
 2.3430	14.6380
 2.3440	14.5940
 2.3450	14.5410
 2.3460	14.4950
 2.3470	14.4560
 2.3480	14.4130
 2.3490	14.3700
 2.3500	14.3290
 2.3510	14.2880
 2.3520	14.2510
 2.3530	14.2160
 2.3540	14.1900
 2.3550	14.1660
 2.3560	14.1410
 2.3570	14.1180
 2.3580	14.0930
 2.3590	14.0700
 2.3600	14.0400
 2.3610	14.0120
 2.3620	13.9930
 2.3630	13.9610
 2.3640	13.9260
 2.3650	13.8930
 2.3660	13.8480
 2.3670	13.8070
 2.3680	13.7720
 2.3690	13.7250
 2.3700	13.6840
 2.3710	13.6490
 2.3720	13.6120
 2.3730	13.5770
 2.3740	13.5390
 2.3750	13.4910
 2.3760	13.4390
 2.3770	13.3970
 2.3780	13.3540
 2.3790	13.3080
 2.3800	13.2680
 2.3810	13.2250
 2.3820	13.1770
 2.3830	13.1340
 2.3840	13.0900
 2.3850	13.0320
 2.3860	12.9740
 2.3870	12.9200
 2.3880	12.8640
 2.3890	12.8150
 2.3900	12.7640
 2.3910	12.7090
 2.3920	12.6590
 2.3930	12.6060
 2.3940	12.5630
 2.3950	12.5260
 2.3960	12.4740
 2.3970	12.4200
 2.3980	12.3730
 2.3990	12.3220
 2.4000	12.2660
 2.4010	12.2160
 2.4020	12.1680
 2.4030	12.1070
 2.4040	12.0510
 2.4050	11.9920
 2.4060	11.9290
 2.4070	11.8770
 2.4080	11.8320
 2.4090	11.8010
 2.4100	11.7630
 2.4110	11.7100
 2.4120	11.6570
 2.4130	11.5970
 2.4140	11.5300
 2.4150	11.4710
 2.4160	11.4210
 2.4170	11.3760
 2.4180	11.3340
 2.4190	11.2990
 2.4200	11.2530
 2.4210	11.1870
 2.4220	11.1310
 2.4230	11.0710
 2.4240	11.0110
 2.4250	10.9650
 2.4260	10.9150
 2.4270	10.8530
 2.4280	10.7920
 2.4290	10.7380
 2.4300	10.6750
 2.4310	10.6110
 2.4320	10.5520
 2.4330	10.4790
 2.4340	10.4110
 2.4350	10.3630
 2.4360	10.3060
 2.4370	10.2370
 2.4380	10.1730
 2.4390	10.1050
 2.4400	10.0430
 2.4410	10.0060
 2.4420	 9.9570
 2.4430	 9.8910
 2.4440	 9.8360
 2.4450	 9.7730
 2.4460	 9.7060
 2.4470	 9.6560
 2.4480	 9.5900
 2.4490	 9.5200
 2.4500	 9.4580
 2.4510	 9.3980
 2.4520	 9.3380
 2.4530	 9.2670
 2.4540	 9.2150
 2.4550	 9.1680
 2.4560	 9.1120
 2.4570	 9.0750
 2.4580	 9.0240
 2.4590	 8.9610
 2.4600	 8.9100
 2.4610	 8.8640
 2.4620	 8.8000
 2.4630	 8.7350
 2.4640	 8.6900
 2.4650	 8.6350
 2.4660	 8.5960
 2.4670	 8.5540
 2.4680	 8.4790
 2.4690	 8.4460
 2.4700	 8.3950
 2.4710	 8.3440
 2.4720	 8.3150
 2.4730	 8.2720
 2.4740	 8.2380
 2.4750	 8.2650
 2.4760	 8.2380
 2.4770	 8.1640
 2.4780	 8.1140
 2.4790	 8.0410
 2.4800	 7.9880
 2.4810	 7.9660
 2.4820	 7.9350
 2.4830	 7.9060
 2.4840	 7.8890
 2.4850	 7.8490
 2.4860	 7.8340
 2.4870	 7.8100
 2.4880	 7.7520
 2.4890	 7.7540
 2.4900	 7.7300
 2.4910	 7.6890
 2.4920	 7.6630
 2.4930	 7.5860
 2.4940	 7.5070
 2.4950	 7.4390
 2.4960	 7.4380
 2.4970	 7.4520
 2.4980	 7.4430
 2.4990	 7.4570
 2.5000	 7.4250
